SpectraSuite Data File
++++++++++++++++++++++++++++++++++++
Date: Wed Jul 25 11:09:03 HST 2007
User: guest
Dark Spectrum Present: Yes
Reference Spectrum Present: No
Number of Sampled Component Spectra: 1
Spectrometers: USB4E01242
Integration Time (usec): 100000 (USB4E01242)
Spectra Averaged: 1 (USB4E01242)
Boxcar Smoothing: 10 (USB4E01242)
Correct for Electrical Dark: No (USB4E01242)
Strobe/Lamp Enabled: No (USB4E01242)
Correct for Detector Non-linearity: No (USB4E01242)
Correct for Stray Light: No (USB4E01242)
Number of Pixels in Processed Spectrum: 3648
>>>>>Begin Processed Spectral Data<<<<<
177.33	0.0000E00
177.55	0.0000E00
177.77	0.0000E00
177.99	0.0000E00
178.21	0.0000E00
178.43	0.0000E00
178.64	0.0000E00
178.86	0.0000E00
179.08	0.0000E00
179.30	0.0000E00
179.52	0.0000E00
179.74	0.0000E00
179.96	0.0000E00
180.18	0.0000E00
180.39	0.0000E00
180.61	0.0000E00
180.83	0.0000E00
181.05	0.0000E00
181.27	0.0000E00
181.49	0.0000E00
181.71	0.0000E00
181.92	0.0000E00
182.14	0.0000E00
182.36	0.0000E00
182.58	0.0000E00
182.80	0.0000E00
183.02	0.0000E00
183.23	0.0000E00
183.45	0.0000E00
183.67	0.0000E00
183.89	0.0000E00
184.11	0.0000E00
184.33	0.0000E00
184.55	0.0000E00
184.76	0.0000E00
184.98	0.0000E00
185.20	-0.0000E00
185.42	0.0000E00
185.64	0.0000E00
185.86	0.0000E00
186.07	0.0000E00
186.29	0.0000E00
186.51	0.0000E00
186.73	0.0000E00
186.95	0.0000E00
187.17	0.0000E00
187.38	0.0000E00
187.60	0.0000E00
187.82	0.0000E00
188.04	0.0000E00
188.26	0.0000E00
188.47	0.0000E00
188.69	0.0000E00
188.91	0.0000E00
189.13	0.0000E00
189.35	0.0000E00
189.57	0.0000E00
189.78	0.0000E00
190.00	0.0000E00
190.22	0.0000E00
190.44	0.0000E00
190.66	0.0000E00
190.87	0.0000E00
191.09	0.0000E00
191.31	0.0000E00
191.53	-0.0000E00
191.75	0.0000E00
191.97	0.0000E00
192.18	0.0000E00
192.40	0.0000E00
192.62	0.0000E00
192.84	0.0000E00
193.06	0.0000E00
193.27	0.0000E00
193.49	0.0000E00
193.71	0.0000E00
193.93	-0.0000E00
194.15	0.0000E00
194.36	0.0000E00
194.58	0.0000E00
194.80	0.0000E00
195.02	0.0000E00
195.23	0.0000E00
195.45	0.0000E00
195.67	0.0000E00
195.89	0.0000E00
196.11	0.0000E00
196.32	0.0000E00
196.54	0.0000E00
196.76	0.0000E00
196.98	0.0000E00
197.20	0.0000E00
197.41	0.0000E00
197.63	0.0000E00
197.85	0.0000E00
198.07	0.0000E00
198.28	0.0000E00
198.50	0.0000E00
198.72	0.0000E00
198.94	0.0000E00
199.16	0.0000E00
199.37	0.0000E00
199.59	0.0000E00
199.81	0.0000E00
200.03	0.0000E00
200.24	0.0000E00
200.46	0.0000E00
200.68	0.0000E00
200.90	0.0000E00
201.11	0.0000E00
201.33	0.0000E00
201.55	0.0000E00
201.77	0.0000E00
201.98	0.0000E00
202.20	0.0000E00
202.42	0.0000E00
202.64	0.0000E00
202.86	0.0000E00
203.07	0.0000E00
203.29	0.0000E00
203.51	0.0000E00
203.73	0.0000E00
203.94	0.0000E00
204.16	0.0000E00
204.38	0.0000E00
204.60	0.0000E00
204.81	0.0000E00
205.03	0.0000E00
205.25	0.0000E00
205.46	0.0000E00
205.68	0.0000E00
205.90	0.0000E00
206.12	0.0000E00
206.33	0.0000E00
206.55	0.0000E00
206.77	0.0000E00
206.99	0.0000E00
207.20	0.0000E00
207.42	0.0000E00
207.64	0.0000E00
207.86	0.0000E00
208.07	0.0000E00
208.29	0.0000E00
208.51	0.0000E00
208.72	0.0000E00
208.94	0.0000E00
209.16	0.0000E00
209.38	0.0000E00
209.59	0.0000E00
209.81	0.0000E00
210.03	0.0000E00
210.25	0.0000E00
210.46	0.0000E00
210.68	0.0000E00
210.90	0.0000E00
211.11	0.0000E00
211.33	0.0000E00
211.55	0.0000E00
211.77	0.0000E00
211.98	0.0000E00
212.20	0.0000E00
212.42	0.0000E00
212.63	0.0000E00
212.85	0.0000E00
213.07	0.0000E00
213.29	0.0000E00
213.50	0.0000E00
213.72	0.0000E00
213.94	0.0000E00
214.15	0.0000E00
214.37	0.0000E00
214.59	0.0000E00
214.80	0.0000E00
215.02	0.0000E00
215.24	0.0000E00
215.45	0.0000E00
215.67	0.0000E00
215.89	0.0000E00
216.11	0.0000E00
216.32	0.0000E00
216.54	0.0000E00
216.76	0.0000E00
216.97	0.0000E00
217.19	0.0000E00
217.41	0.0000E00
217.62	0.0000E00
217.84	0.0000E00
218.06	0.0000E00
218.27	0.0000E00
218.49	0.0000E00
218.71	0.0000E00
218.92	0.0000E00
219.14	0.0000E00
219.36	0.0000E00
219.57	0.0000E00
219.79	0.0000E00
220.01	0.0000E00
220.22	0.0000E00
220.44	0.0000E00
220.66	0.0000E00
220.88	0.0000E00
221.09	0.0000E00
221.31	0.0000E00
221.53	0.0000E00
221.74	0.0000E00
221.96	0.0000E00
222.17	0.0000E00
222.39	0.0000E00
222.61	0.0000E00
222.82	0.0000E00
223.04	0.0000E00
223.26	0.0000E00
223.47	-0.0000E00
223.69	0.0000E00
223.91	0.0000E00
224.12	0.0000E00
224.34	0.0000E00
224.56	0.0000E00
224.77	0.0000E00
224.99	0.0000E00
225.21	0.0000E00
225.42	0.0000E00
225.64	0.0000E00
225.86	0.0000E00
226.07	0.0000E00
226.29	0.0000E00
226.50	0.0000E00
226.72	0.0000E00
226.94	0.0000E00
227.15	0.0000E00
227.37	0.0000E00
227.59	0.0000E00
227.80	0.0000E00
228.02	0.0000E00
228.24	0.0000E00
228.45	0.0000E00
228.67	-0.0000E00
228.88	0.0000E00
229.10	0.0000E00
229.32	0.0000E00
229.53	0.0000E00
229.75	0.0000E00
229.97	0.0000E00
230.18	0.0000E00
230.40	0.0000E00
230.61	0.0000E00
230.83	0.0000E00
231.05	0.0000E00
231.26	0.0000E00
231.48	0.0000E00
231.70	0.0000E00
231.91	0.0000E00
232.13	0.0000E00
232.34	0.0000E00
232.56	0.0000E00
232.78	0.0000E00
232.99	0.0000E00
233.21	0.0000E00
233.42	0.0000E00
233.64	0.0000E00
233.86	0.0000E00
234.07	0.0000E00
234.29	0.0000E00
234.50	0.0000E00
234.72	0.0000E00
234.94	0.0000E00
235.15	0.0000E00
235.37	0.0000E00
235.58	0.0000E00
235.80	0.0000E00
236.02	0.0000E00
236.23	0.0000E00
236.45	0.0000E00
236.66	0.0000E00
236.88	0.0000E00
237.10	0.0000E00
237.31	0.0000E00
237.53	0.0000E00
237.74	0.0000E00
237.96	0.0000E00
238.17	0.0000E00
238.39	0.0000E00
238.61	0.0000E00
238.82	0.0000E00
239.04	0.0000E00
239.25	0.0000E00
239.47	0.0000E00
239.69	0.0000E00
239.90	0.0000E00
240.12	0.0000E00
240.33	0.0000E00
240.55	0.0000E00
240.76	0.0000E00
240.98	0.0000E00
241.20	0.0000E00
241.41	0.0000E00
241.63	0.0000E00
241.84	0.0000E00
242.06	0.0000E00
242.27	0.0000E00
242.49	0.0000E00
242.70	0.0000E00
242.92	0.0000E00
243.14	0.0000E00
243.35	0.0000E00
243.57	0.0000E00
243.78	0.0000E00
244.00	0.0000E00
244.21	0.0000E00
244.43	0.0000E00
244.64	0.0000E00
244.86	0.0000E00
245.08	-0.0000E00
245.29	0.0000E00
245.51	0.0000E00
245.72	0.0000E00
245.94	0.0000E00
246.15	0.0000E00
246.37	0.0000E00
246.58	0.0000E00
246.80	0.0000E00
247.01	0.0000E00
247.23	0.0000E00
247.45	0.0000E00
247.66	0.0000E00
247.88	0.0000E00
248.09	0.0000E00
248.31	0.0000E00
248.52	0.0000E00
248.74	0.0000E00
248.95	0.0000E00
249.17	0.0000E00
249.38	0.0000E00
249.60	0.0000E00
249.81	0.0000E00
250.03	0.0000E00
250.24	0.0000E00
250.46	0.0000E00
250.67	0.0000E00
250.89	0.0000E00
251.10	0.0000E00
251.32	0.0000E00
251.53	0.0000E00
251.75	0.0000E00
251.97	0.0000E00
252.18	0.0000E00
252.40	0.0000E00
252.61	0.0000E00
252.83	0.0000E00
253.04	0.0000E00
253.26	0.0000E00
253.47	0.0000E00
253.69	0.0000E00
253.90	0.0000E00
254.12	0.0000E00
254.33	0.0000E00
254.55	0.0000E00
254.76	0.0000E00
254.98	0.0000E00
255.19	0.0000E00
255.41	0.0000E00
255.62	0.0000E00
255.84	0.0000E00
256.05	0.0000E00
256.27	0.0000E00
256.48	0.0000E00
256.70	0.0000E00
256.91	0.0000E00
257.13	0.0000E00
257.34	0.0000E00
257.55	0.0000E00
257.77	0.0000E00
257.98	0.0000E00
258.20	0.0000E00
258.41	0.0000E00
258.63	0.0000E00
258.84	0.0000E00
259.06	0.0000E00
259.27	0.0000E00
259.49	0.0000E00
259.70	0.0000E00
259.92	0.0000E00
260.13	0.0000E00
260.35	0.0000E00
260.56	0.0000E00
260.78	0.0000E00
260.99	0.0000E00
261.21	0.0000E00
261.42	0.0000E00
261.63	0.0000E00
261.85	0.0000E00
262.06	0.0000E00
262.28	0.0000E00
262.49	0.0000E00
262.71	0.0000E00
262.92	0.0000E00
263.14	0.0000E00
263.35	0.0000E00
263.57	0.0000E00
263.78	0.0000E00
264.00	0.0000E00
264.21	0.0000E00
264.42	0.0000E00
264.64	0.0000E00
264.85	0.0000E00
265.07	0.0000E00
265.28	0.0000E00
265.50	0.0000E00
265.71	0.0000E00
265.93	0.0000E00
266.14	0.0000E00
266.35	0.0000E00
266.57	0.0000E00
266.78	0.0000E00
267.00	0.0000E00
267.21	0.0000E00
267.43	0.0000E00
267.64	0.0000E00
267.85	0.0000E00
268.07	0.0000E00
268.28	0.0000E00
268.50	0.0000E00
268.71	0.0000E00
268.93	0.0000E00
269.14	0.0000E00
269.35	0.0000E00
269.57	0.0000E00
269.78	0.0000E00
270.00	0.0000E00
270.21	0.0000E00
270.43	0.0000E00
270.64	0.0000E00
270.85	0.0000E00
271.07	0.0000E00
271.28	0.0000E00
271.50	0.0000E00
271.71	0.0000E00
271.92	0.0000E00
272.14	0.0000E00
272.35	0.0000E00
272.57	0.0000E00
272.78	0.0000E00
272.99	0.0000E00
273.21	0.0000E00
273.42	0.0000E00
273.64	0.0000E00
273.85	0.0000E00
274.07	0.0000E00
274.28	0.0000E00
274.49	0.0000E00
274.71	0.0000E00
274.92	0.0000E00
275.13	0.0000E00
275.35	0.0000E00
275.56	0.0000E00
275.78	0.0000E00
275.99	0.0000E00
276.20	0.0000E00
276.42	0.0000E00
276.63	0.0000E00
276.85	0.0000E00
277.06	0.0000E00
277.27	0.0000E00
277.49	0.0000E00
277.70	0.0000E00
277.92	0.0000E00
278.13	0.0000E00
278.34	0.0000E00
278.56	0.0000E00
278.77	0.0000E00
278.98	0.0000E00
279.20	0.0000E00
279.41	0.0000E00
279.63	0.0000E00
279.84	0.0000E00
280.05	0.0000E00
280.27	0.0000E00
280.48	0.0000E00
280.69	0.0000E00
280.91	0.0000E00
281.12	0.0000E00
281.33	0.0000E00
281.55	0.0000E00
281.76	0.0000E00
281.98	0.0000E00
282.19	0.0000E00
282.40	0.0000E00
282.62	0.0000E00
282.83	0.0000E00
283.04	0.0000E00
283.26	0.0000E00
283.47	0.0000E00
283.68	0.0000E00
283.90	0.0000E00
284.11	0.0000E00
284.32	0.0000E00
284.54	0.0000E00
284.75	0.0000E00
284.96	0.0000E00
285.18	0.0000E00
285.39	0.0000E00
285.60	0.0000E00
285.82	0.0000E00
286.03	0.0000E00
286.24	0.0000E00
286.46	0.0000E00
286.67	0.0000E00
286.88	0.0000E00
287.10	0.0000E00
287.31	0.0000E00
287.52	0.0000E00
287.74	0.0000E00
287.95	0.0000E00
288.16	0.0000E00
288.38	0.0000E00
288.59	-0.0000E00
288.80	0.0000E00
289.02	0.0000E00
289.23	0.0000E00
289.44	0.0000E00
289.66	0.0000E00
289.87	0.0000E00
290.08	0.0000E00
290.30	0.0000E00
290.51	0.0000E00
290.72	0.0000E00
290.94	0.0000E00
291.15	0.0000E00
291.36	0.0000E00
291.57	0.0000E00
291.79	0.0000E00
292.00	0.0000E00
292.21	0.0000E00
292.43	0.0000E00
292.64	0.0000E00
292.85	0.0000E00
293.07	0.0000E00
293.28	0.0000E00
293.49	0.0000E00
293.70	0.0000E00
293.92	0.0000E00
294.13	0.0000E00
294.34	0.0000E00
294.56	0.0000E00
294.77	0.0000E00
294.98	0.0000E00
295.20	0.0000E00
295.41	0.0000E00
295.62	0.0000E00
295.83	0.0000E00
296.05	0.0000E00
296.26	0.0000E00
296.47	0.0000E00
296.69	0.0000E00
296.90	0.0000E00
297.11	0.0000E00
297.32	0.0000E00
297.54	0.0000E00
297.75	0.0000E00
297.96	0.0000E00
298.17	0.0000E00
298.39	0.0000E00
298.60	0.0000E00
298.81	0.0000E00
299.03	0.0000E00
299.24	0.0000E00
299.45	0.0000E00
299.66	0.0000E00
299.88	0.0000E00
300.09	2.0667E-02
300.30	1.6828E-02
300.51	2.6751E-02
300.73	1.7051E-02
300.94	1.9584E-02
301.15	2.3265E-02
301.36	1.4803E-02
301.58	1.8825E-02
301.79	3.4408E-02
302.00	2.0190E-02
302.21	1.7380E-02
302.43	2.5653E-02
302.64	1.7055E-02
302.85	2.5471E-02
303.06	1.3722E-02
303.28	2.2455E-02
303.49	1.5036E-02
303.70	2.7640E-02
303.91	1.6629E-02
304.13	1.4563E-02
304.34	1.9130E-02
304.55	2.8278E-02
304.76	1.2393E-02
304.98	1.6304E-02
305.19	2.5775E-02
305.40	1.4049E-02
305.61	2.3519E-02
305.82	1.7047E-02
306.04	2.4860E-02
306.25	1.3257E-02
306.46	2.7384E-02
306.67	1.5660E-02
306.89	1.7659E-02
307.10	2.4764E-02
307.31	2.3422E-02
307.52	2.0661E-02
307.74	2.8756E-02
307.95	2.8182E-02
308.16	1.1749E-02
308.37	2.2160E-02
308.58	1.9141E-02
308.80	2.5974E-02
309.01	2.3104E-02
309.22	1.1009E-02
309.43	1.5735E-02
309.64	2.4181E-02
309.86	3.0220E-02
310.07	2.0627E-02
310.28	2.4254E-02
310.49	2.5846E-02
310.70	1.6572E-02
310.92	2.6942E-02
311.13	2.2055E-02
311.34	2.3608E-02
311.55	2.4890E-02
311.76	2.3522E-02
311.98	3.6339E-02
312.19	2.4278E-02
312.40	1.9099E-02
312.61	2.2013E-02
312.82	2.8674E-02
313.04	2.0739E-02
313.25	2.9477E-02
313.46	2.2512E-02
313.67	2.3271E-02
313.88	2.5875E-02
314.10	2.2775E-02
314.31	2.2752E-02
314.52	2.3565E-02
314.73	2.5450E-02
314.94	3.2289E-02
315.16	3.3841E-02
315.37	4.0765E-02
315.58	2.5422E-02
315.79	3.3346E-02
316.00	3.5109E-02
316.21	3.9435E-02
316.43	2.1720E-02
316.64	2.6588E-02
316.85	2.4133E-02
317.06	3.2217E-02
317.27	3.6846E-02
317.48	2.7339E-02
317.70	2.9752E-02
317.91	2.7887E-02
318.12	3.6639E-02
318.33	2.4298E-02
318.54	2.7362E-02
318.75	2.9845E-02
318.97	3.7568E-02
319.18	2.9733E-02
319.39	2.7111E-02
319.60	2.8674E-02
319.81	3.4667E-02
320.02	2.5932E-02
320.24	2.6518E-02
320.45	3.1186E-02
320.66	2.0803E-02
320.87	2.8526E-02
321.08	3.6592E-02
321.29	3.6104E-02
321.50	2.8843E-02
321.72	2.5690E-02
321.93	3.9551E-02
322.14	2.9821E-02
322.35	3.9742E-02
322.56	4.0374E-02
322.77	4.4607E-02
322.98	3.2786E-02
323.20	4.3132E-02
323.41	2.7936E-02
323.62	2.7254E-02
323.83	3.6174E-02
324.04	2.8524E-02
324.25	2.7877E-02
324.46	3.3618E-02
324.67	3.5414E-02
324.89	3.2190E-02
325.10	3.0568E-02
325.31	4.3452E-02
325.52	3.7147E-02
325.73	2.9994E-02
325.94	3.2771E-02
326.15	2.4307E-02
326.36	4.1384E-02
326.58	4.5014E-02
326.79	4.2574E-02
327.00	2.1497E-02
327.21	4.0735E-02
327.42	4.0312E-02
327.63	4.0348E-02
327.84	3.7511E-02
328.05	4.5269E-02
328.26	2.5783E-02
328.48	3.8484E-02
328.69	4.3509E-02
328.90	3.7381E-02
329.11	3.7459E-02
329.32	3.8256E-02
329.53	3.1889E-02
329.74	3.7355E-02
329.95	4.5061E-02
330.16	4.0915E-02
330.37	3.5496E-02
330.59	5.4637E-02
330.80	4.3574E-02
331.01	4.4605E-02
331.22	4.3121E-02
331.43	3.4347E-02
331.64	3.3297E-02
331.85	4.9525E-02
332.06	4.7093E-02
332.27	3.4122E-02
332.48	4.6441E-02
332.69	5.1211E-02
332.91	4.4274E-02
333.12	4.3213E-02
333.33	5.7510E-02
333.54	3.6668E-02
333.75	3.2254E-02
333.96	3.6900E-02
334.17	3.4319E-02
334.38	3.6118E-02
334.59	4.3633E-02
334.80	4.5696E-02
335.01	4.3740E-02
335.22	3.8591E-02
335.43	3.6853E-02
335.64	4.0024E-02
335.86	4.4034E-02
336.07	4.3958E-02
336.28	3.1157E-02
336.49	4.4687E-02
336.70	3.4832E-02
336.91	3.5121E-02
337.12	3.2549E-02
337.33	4.7876E-02
337.54	3.7013E-02
337.75	3.4808E-02
337.96	4.5842E-02
338.17	4.4914E-02
338.38	3.4149E-02
338.59	4.8586E-02
338.80	3.2249E-02
339.01	4.9911E-02
339.22	4.7533E-02
339.43	4.7691E-02
339.65	4.0567E-02
339.86	3.5591E-02
340.07	3.4807E-02
340.28	4.3048E-02
340.49	4.2175E-02
340.70	4.4427E-02
340.91	3.4953E-02
341.12	3.1071E-02
341.33	4.1442E-02
341.54	4.6275E-02
341.75	3.7590E-02
341.96	4.1141E-02
342.17	4.4106E-02
342.38	3.7536E-02
342.59	4.1204E-02
342.80	3.2607E-02
343.01	3.9059E-02
343.22	3.7320E-02
343.43	3.4766E-02
343.64	3.1204E-02
343.85	4.0087E-02
344.06	2.7162E-02
344.27	3.8019E-02
344.48	4.6289E-02
344.69	3.8319E-02
344.90	4.0483E-02
345.11	3.5619E-02
345.32	3.3817E-02
345.53	2.4657E-02
345.74	4.1273E-02
345.95	2.8680E-02
346.16	3.6551E-02
346.37	3.6261E-02
346.58	3.5988E-02
346.79	2.9534E-02
347.00	4.0189E-02
347.21	4.1397E-02
347.42	3.2525E-02
347.63	2.7023E-02
347.84	3.6039E-02
348.05	4.0801E-02
348.26	3.4366E-02
348.47	3.7807E-02
348.68	3.6708E-02
348.89	2.5622E-02
349.10	3.4449E-02
349.31	3.7777E-02
349.52	3.2610E-02
349.73	3.5497E-02
349.94	3.6424E-02
350.15	2.9543E-02
350.36	4.4214E-02
350.57	4.0886E-02
350.78	4.2235E-02
350.99	4.2005E-02
351.20	3.5435E-02
351.41	4.1073E-02
351.62	3.6013E-02
351.83	3.7218E-02
352.04	3.6418E-02
352.25	4.2559E-02
352.46	3.8232E-02
352.67	3.4238E-02
352.88	4.7546E-02
353.09	2.5988E-02
353.30	3.6879E-02
353.51	3.8464E-02
353.72	4.6836E-02
353.93	3.6687E-02
354.14	3.2337E-02
354.35	4.6363E-02
354.56	3.7236E-02
354.77	5.0600E-02
354.98	3.0216E-02
355.19	3.6940E-02
355.39	3.8853E-02
355.60	3.6380E-02
355.81	4.1430E-02
356.02	4.4034E-02
356.23	3.1594E-02
356.44	2.8834E-02
356.65	4.2256E-02
356.86	3.5052E-02
357.07	3.4419E-02
357.28	4.2929E-02
357.49	3.8351E-02
357.70	4.2274E-02
357.91	3.0921E-02
358.12	3.0561E-02
358.33	3.9510E-02
358.54	4.2112E-02
358.75	3.6272E-02
358.96	4.2674E-02
359.16	2.8826E-02
359.37	4.5657E-02
359.58	4.0487E-02
359.79	3.6970E-02
360.00	3.7679E-02
360.21	3.9024E-02
360.42	3.7168E-02
360.63	5.6692E-02
360.84	4.7315E-02
361.05	3.1406E-02
361.26	4.0948E-02
361.47	4.9145E-02
361.68	3.9989E-02
361.88	4.5225E-02
362.09	3.8339E-02
362.30	4.5359E-02
362.51	4.1702E-02
362.72	5.3477E-02
362.93	4.3372E-02
363.14	4.5678E-02
363.35	4.2678E-02
363.56	4.1274E-02
363.77	5.3050E-02
363.98	4.8879E-02
364.18	5.5875E-02
364.39	5.2749E-02
364.60	4.7449E-02
364.81	5.0036E-02
365.02	5.1796E-02
365.23	5.3638E-02
365.44	5.3648E-02
365.65	5.2581E-02
365.86	4.2147E-02
366.07	5.9708E-02
366.27	5.2647E-02
366.48	5.6820E-02
366.69	5.2484E-02
366.90	5.9815E-02
367.11	5.6333E-02
367.32	5.7558E-02
367.53	5.1330E-02
367.74	4.7466E-02
367.95	4.7668E-02
368.15	5.1384E-02
368.36	5.6499E-02
368.57	4.3012E-02
368.78	6.2814E-02
368.99	5.1228E-02
369.20	4.9984E-02
369.41	5.6979E-02
369.62	5.2706E-02
369.82	6.1626E-02
370.03	5.2698E-02
370.24	5.5994E-02
370.45	5.1567E-02
370.66	4.5906E-02
370.87	4.6349E-02
371.08	4.8966E-02
371.28	4.8789E-02
371.49	4.9380E-02
371.70	4.8607E-02
371.91	4.9346E-02
372.12	4.3659E-02
372.33	4.4195E-02
372.54	4.9449E-02
372.74	4.8620E-02
372.95	3.7302E-02
373.16	5.0850E-02
373.37	5.2762E-02
373.58	3.7481E-02
373.79	4.9310E-02
374.00	4.5002E-02
374.20	5.6102E-02
374.41	5.3827E-02
374.62	4.7364E-02
374.83	4.6777E-02
375.04	4.9310E-02
375.25	5.0227E-02
375.45	3.5387E-02
375.66	5.2242E-02
375.87	5.1349E-02
376.08	5.5409E-02
376.29	5.4067E-02
376.50	5.2165E-02
376.70	4.9573E-02
376.91	5.5578E-02
377.12	5.5817E-02
377.33	4.4671E-02
377.54	4.7120E-02
377.75	5.5748E-02
377.95	4.9391E-02
378.16	5.2725E-02
378.37	4.6310E-02
378.58	5.5506E-02
378.79	4.1431E-02
379.00	5.6538E-02
379.20	4.7477E-02
379.41	5.1922E-02
379.62	5.4645E-02
379.83	4.8976E-02
380.04	5.1483E-02
380.24	4.6479E-02
380.45	4.0442E-02
380.66	4.2861E-02
380.87	4.7816E-02
381.08	4.9474E-02
381.28	4.1534E-02
381.49	4.8617E-02
381.70	4.0947E-02
381.91	4.4189E-02
382.12	4.9110E-02
382.32	4.2998E-02
382.53	4.8476E-02
382.74	4.0221E-02
382.95	4.3754E-02
383.16	4.6995E-02
383.36	3.4875E-02
383.57	4.5939E-02
383.78	4.9898E-02
383.99	4.1587E-02
384.20	4.4778E-02
384.40	4.5691E-02
384.61	5.1758E-02
384.82	5.4310E-02
385.03	4.8294E-02
385.23	5.0627E-02
385.44	5.0872E-02
385.65	5.4544E-02
385.86	4.5680E-02
386.07	6.3146E-02
386.27	4.2178E-02
386.48	4.9975E-02
386.69	5.5227E-02
386.90	3.7692E-02
387.10	4.8070E-02
387.31	5.5669E-02
387.52	4.8964E-02
387.73	5.3211E-02
387.94	5.8139E-02
388.14	4.4756E-02
388.35	5.0132E-02
388.56	6.5915E-02
388.77	5.8108E-02
388.97	5.8720E-02
389.18	6.4249E-02
389.39	5.4540E-02
389.60	5.7149E-02
389.80	6.4682E-02
390.01	6.1184E-02
390.22	6.0424E-02
390.43	4.9415E-02
390.63	5.2931E-02
390.84	5.2822E-02
391.05	6.4435E-02
391.26	5.4528E-02
391.46	5.3362E-02
391.67	5.3440E-02
391.88	4.4838E-02
392.09	4.4702E-02
392.29	5.6012E-02
392.50	4.8137E-02
392.71	5.1918E-02
392.92	5.3724E-02
393.12	5.1713E-02
393.33	5.6947E-02
393.54	4.9387E-02
393.74	4.4396E-02
393.95	4.8331E-02
394.16	5.6449E-02
394.37	4.9707E-02
394.57	5.0254E-02
394.78	5.6361E-02
394.99	5.2280E-02
395.19	5.1035E-02
395.40	5.0610E-02
395.61	4.9736E-02
395.82	5.7983E-02
396.02	5.1859E-02
396.23	5.8533E-02
396.44	6.0258E-02
396.65	5.5674E-02
396.85	6.4195E-02
397.06	6.0524E-02
397.27	6.3944E-02
397.47	6.9494E-02
397.68	6.3975E-02
397.89	6.1345E-02
398.09	5.9428E-02
398.30	6.5722E-02
398.51	5.9577E-02
398.72	6.6640E-02
398.92	7.3180E-02
399.13	7.3561E-02
399.34	7.8814E-02
399.54	7.9820E-02
399.75	7.6230E-02
399.96	7.0151E-02
400.16	6.9816E-02
400.37	7.7671E-02
400.58	7.5819E-02
400.78	7.8354E-02
400.99	7.5072E-02
401.20	8.2168E-02
401.41	7.9770E-02
401.61	7.2642E-02
401.82	7.8854E-02
402.03	7.3080E-02
402.23	7.2424E-02
402.44	8.1367E-02
402.65	7.6783E-02
402.85	7.8151E-02
403.06	7.8569E-02
403.27	8.1918E-02
403.47	8.0414E-02
403.68	7.5223E-02
403.89	8.2375E-02
404.09	7.7235E-02
404.30	7.1796E-02
404.51	8.2717E-02
404.71	8.1346E-02
404.92	8.6769E-02
405.13	7.0054E-02
405.33	7.5145E-02
405.54	7.6738E-02
405.75	7.9156E-02
405.95	7.7606E-02
406.16	6.7577E-02
406.37	7.8241E-02
406.57	7.8589E-02
406.78	8.1372E-02
406.99	7.9725E-02
407.19	8.2951E-02
407.40	8.7280E-02
407.60	8.3554E-02
407.81	8.1668E-02
408.02	7.5188E-02
408.22	7.6977E-02
408.43	8.5038E-02
408.64	8.1800E-02
408.84	8.0224E-02
409.05	7.2703E-02
409.26	8.4460E-02
409.46	8.7182E-02
409.67	8.0077E-02
409.87	8.4538E-02
410.08	8.2107E-02
410.29	9.0951E-02
410.49	7.5576E-02
410.70	8.6092E-02
410.91	8.3308E-02
411.11	8.9211E-02
411.32	8.5550E-02
411.52	7.7220E-02
411.73	8.8548E-02
411.94	8.7498E-02
412.14	9.0065E-02
412.35	8.4423E-02
412.56	9.0685E-02
412.76	9.0060E-02
412.97	8.4571E-02
413.17	8.8766E-02
413.38	9.4263E-02
413.59	8.4724E-02
413.79	8.7431E-02
414.00	9.0273E-02
414.20	9.2478E-02
414.41	8.2497E-02
414.62	9.0074E-02
414.82	8.5324E-02
415.03	8.0138E-02
415.23	9.0233E-02
415.44	8.1747E-02
415.65	8.8374E-02
415.85	8.1847E-02
416.06	9.0552E-02
416.26	8.8022E-02
416.47	8.9621E-02
416.68	9.3216E-02
416.88	9.5756E-02
417.09	7.6974E-02
417.29	8.7372E-02
417.50	9.0771E-02
417.71	8.8276E-02
417.91	8.6445E-02
418.12	8.5411E-02
418.32	9.3469E-02
418.53	9.3040E-02
418.73	8.6658E-02
418.94	8.7057E-02
419.15	8.6044E-02
419.35	9.6857E-02
419.56	9.1205E-02
419.76	8.3244E-02
419.97	9.7578E-02
420.17	9.2599E-02
420.38	8.0830E-02
420.59	9.5031E-02
420.79	9.6240E-02
421.00	8.9897E-02
421.20	8.0631E-02
421.41	8.8378E-02
421.61	8.5695E-02
421.82	9.0181E-02
422.02	8.7612E-02
422.23	7.5784E-02
422.44	9.4398E-02
422.64	8.3858E-02
422.85	8.5715E-02
423.05	8.6402E-02
423.26	8.8184E-02
423.46	8.6444E-02
423.67	8.3437E-02
423.87	8.4217E-02
424.08	8.1516E-02
424.29	8.1610E-02
424.49	8.9004E-02
424.70	7.7849E-02
424.90	8.7578E-02
425.11	8.7923E-02
425.31	8.5638E-02
425.52	8.8979E-02
425.72	8.2219E-02
425.93	8.4734E-02
426.13	8.0111E-02
426.34	8.2262E-02
426.54	8.2238E-02
426.75	8.3879E-02
426.95	8.3994E-02
427.16	8.5197E-02
427.36	8.4458E-02
427.57	7.9420E-02
427.78	7.8205E-02
427.98	7.8480E-02
428.19	8.0649E-02
428.39	7.6039E-02
428.60	7.7180E-02
428.80	7.8281E-02
429.01	8.2593E-02
429.21	7.1873E-02
429.42	8.7728E-02
429.62	8.5891E-02
429.83	8.0919E-02
430.03	7.5200E-02
430.24	8.5218E-02
430.44	7.7796E-02
430.65	8.3551E-02
430.85	8.4532E-02
431.06	7.8646E-02
431.26	8.7520E-02
431.47	7.6085E-02
431.67	9.2514E-02
431.88	8.7778E-02
432.08	8.9992E-02
432.29	9.0163E-02
432.49	8.4791E-02
432.70	8.4691E-02
432.90	9.4671E-02
433.11	9.2468E-02
433.31	8.0202E-02
433.52	8.9162E-02
433.72	8.5586E-02
433.93	8.9207E-02
434.13	8.8418E-02
434.34	9.7762E-02
434.54	8.6260E-02
434.74	8.9440E-02
434.95	9.1430E-02
435.15	8.8915E-02
435.36	9.2118E-02
435.56	8.6790E-02
435.77	9.4211E-02
435.97	8.6861E-02
436.18	1.0423E-01
436.38	9.5813E-02
436.59	9.1531E-02
436.79	9.8728E-02
437.00	9.6715E-02
437.20	9.3393E-02
437.41	9.2614E-02
437.61	9.6019E-02
437.81	9.5403E-02
438.02	9.4704E-02
438.22	9.7642E-02
438.43	8.9881E-02
438.63	1.0279E-01
438.84	9.3367E-02
439.04	9.4279E-02
439.25	9.6450E-02
439.45	9.1563E-02
439.66	9.2110E-02
439.86	9.3274E-02
440.06	1.0326E-01
440.27	9.3536E-02
440.47	8.8996E-02
440.68	1.0032E-01
440.88	9.6282E-02
441.09	1.0165E-01
441.29	1.0051E-01
441.49	9.9376E-02
441.70	1.0538E-01
441.90	1.0116E-01
442.11	1.0369E-01
442.31	1.0811E-01
442.52	1.0163E-01
442.72	1.0170E-01
442.92	9.6243E-02
443.13	1.0547E-01
443.33	9.4283E-02
443.54	1.0234E-01
443.74	1.0042E-01
443.95	1.0617E-01
444.15	1.0274E-01
444.35	1.0763E-01
444.56	1.0247E-01
444.76	9.8833E-02
444.97	1.1346E-01
445.17	1.0854E-01
445.37	1.1634E-01
445.58	1.0444E-01
445.78	1.0742E-01
445.99	1.0066E-01
446.19	1.0076E-01
446.39	1.0325E-01
446.60	9.8690E-02
446.80	9.9163E-02
447.01	1.0739E-01
447.21	1.1296E-01
447.41	1.0289E-01
447.62	1.1146E-01
447.82	1.0748E-01
448.03	1.1147E-01
448.23	1.1061E-01
448.43	1.1229E-01
448.64	1.1467E-01
448.84	1.1347E-01
449.05	1.0985E-01
449.25	1.1400E-01
449.45	1.0753E-01
449.66	1.0966E-01
449.86	1.1080E-01
450.07	1.0531E-01
450.27	1.1066E-01
450.47	1.0799E-01
450.68	1.1114E-01
450.88	1.0766E-01
451.08	1.1049E-01
451.29	1.1249E-01
451.49	1.1257E-01
451.70	1.1137E-01
451.90	1.1395E-01
452.10	1.1286E-01
452.31	1.0512E-01
452.51	1.1378E-01
452.71	1.1193E-01
452.92	1.0999E-01
453.12	1.1530E-01
453.32	1.1048E-01
453.53	1.0113E-01
453.73	1.0341E-01
453.93	1.0442E-01
454.14	1.1552E-01
454.34	1.1276E-01
454.55	1.1463E-01
454.75	1.1201E-01
454.95	1.0666E-01
455.16	1.1704E-01
455.36	1.0847E-01
455.56	1.1862E-01
455.77	1.1565E-01
455.97	1.1264E-01
456.17	1.0907E-01
456.38	1.1311E-01
456.58	1.1853E-01
456.78	1.1124E-01
456.99	1.0494E-01
457.19	1.1068E-01
457.39	1.1053E-01
457.60	1.1365E-01
457.80	1.1211E-01
458.00	1.1005E-01
458.21	1.1706E-01
458.41	1.1582E-01
458.61	1.1152E-01
458.82	1.1178E-01
459.02	1.0830E-01
459.22	1.2035E-01
459.43	1.1816E-01
459.63	1.1536E-01
459.83	1.1163E-01
460.03	1.1486E-01
460.24	1.1810E-01
460.44	1.1164E-01
460.64	1.0846E-01
460.85	1.1626E-01
461.05	1.1504E-01
461.25	1.1585E-01
461.46	1.1322E-01
461.66	1.0981E-01
461.86	1.1490E-01
462.07	1.1808E-01
462.27	1.1513E-01
462.47	1.1993E-01
462.67	1.1382E-01
462.88	1.1742E-01
463.08	1.0857E-01
463.28	1.1536E-01
463.49	1.1978E-01
463.69	1.1577E-01
463.89	1.1702E-01
464.09	1.1809E-01
464.30	1.1394E-01
464.50	1.1974E-01
464.70	1.2049E-01
464.91	1.0842E-01
465.11	1.0930E-01
465.31	1.1015E-01
465.51	1.1582E-01
465.72	1.1250E-01
465.92	1.1190E-01
466.12	1.0752E-01
466.33	1.1366E-01
466.53	1.1173E-01
466.73	1.0890E-01
466.93	1.1467E-01
467.14	1.0866E-01
467.34	1.2114E-01
467.54	1.1451E-01
467.74	1.1586E-01
467.95	1.1431E-01
468.15	1.1127E-01
468.35	1.1542E-01
468.55	1.1763E-01
468.76	1.1717E-01
468.96	1.0658E-01
469.16	1.1472E-01
469.37	1.1437E-01
469.57	1.1471E-01
469.77	1.1042E-01
469.97	1.1472E-01
470.18	1.1787E-01
470.38	1.1937E-01
470.58	1.1540E-01
470.78	1.1790E-01
470.99	1.1602E-01
471.19	1.1305E-01
471.39	1.1654E-01
471.59	1.1000E-01
471.79	1.1358E-01
472.00	1.1508E-01
472.20	1.1715E-01
472.40	1.1210E-01
472.60	1.1243E-01
472.81	1.2034E-01
473.01	1.1807E-01
473.21	1.1323E-01
473.41	1.0663E-01
473.62	1.1844E-01
473.82	1.2153E-01
474.02	1.1446E-01
474.22	1.1526E-01
474.42	1.2423E-01
474.63	1.1868E-01
474.83	1.1606E-01
475.03	1.1643E-01
475.23	1.1849E-01
475.44	1.1507E-01
475.64	1.1655E-01
475.84	1.1832E-01
476.04	1.1610E-01
476.24	1.1685E-01
476.45	1.1837E-01
476.65	1.1554E-01
476.85	1.1494E-01
477.05	1.1930E-01
477.25	1.2187E-01
477.46	1.1868E-01
477.66	1.1748E-01
477.86	1.2118E-01
478.06	1.2110E-01
478.26	1.2138E-01
478.47	1.1950E-01
478.67	1.2528E-01
478.87	1.1881E-01
479.07	1.1508E-01
479.27	1.2018E-01
479.47	1.2218E-01
479.68	1.2088E-01
479.88	1.2179E-01
480.08	1.2088E-01
480.28	1.2192E-01
480.48	1.2123E-01
480.69	1.2224E-01
480.89	1.1946E-01
481.09	1.2005E-01
481.29	1.2523E-01
481.49	1.1197E-01
481.69	1.2118E-01
481.90	1.1839E-01
482.10	1.1969E-01
482.30	1.2328E-01
482.50	1.2042E-01
482.70	1.1681E-01
482.90	1.1729E-01
483.11	1.1690E-01
483.31	1.1718E-01
483.51	1.1028E-01
483.71	1.1148E-01
483.91	1.1281E-01
484.11	1.1250E-01
484.32	1.1242E-01
484.52	1.1415E-01
484.72	1.1368E-01
484.92	1.1260E-01
485.12	1.1189E-01
485.32	1.1092E-01
485.52	1.1058E-01
485.73	1.0660E-01
485.93	1.0585E-01
486.13	1.0680E-01
486.33	1.0808E-01
486.53	1.1031E-01
486.73	1.1133E-01
486.93	1.0992E-01
487.14	1.1518E-01
487.34	1.1443E-01
487.54	1.1397E-01
487.74	1.1631E-01
487.94	1.0904E-01
488.14	1.1513E-01
488.34	1.1519E-01
488.54	1.1443E-01
488.75	1.1420E-01
488.95	1.1539E-01
489.15	1.1467E-01
489.35	1.1368E-01
489.55	1.1454E-01
489.75	1.1695E-01
489.95	1.1535E-01
490.15	1.1558E-01
490.36	1.1792E-01
490.56	1.1648E-01
490.76	1.1989E-01
490.96	1.1861E-01
491.16	1.1960E-01
491.36	1.1821E-01
491.56	1.1761E-01
491.76	1.1261E-01
491.96	1.1822E-01
492.17	1.1755E-01
492.37	1.1924E-01
492.57	1.2120E-01
492.77	1.2131E-01
492.97	1.2418E-01
493.17	1.2163E-01
493.37	1.2105E-01
493.57	1.2040E-01
493.77	1.2009E-01
493.97	1.2417E-01
494.17	1.2058E-01
494.38	1.2173E-01
494.58	1.1965E-01
494.78	1.1984E-01
494.98	1.1940E-01
495.18	1.2199E-01
495.38	1.2171E-01
495.58	1.2337E-01
495.78	1.2337E-01
495.98	1.2505E-01
496.18	1.2431E-01
496.38	1.2104E-01
496.58	1.1743E-01
496.78	1.2381E-01
496.99	1.1901E-01
497.19	1.2293E-01
497.39	1.2457E-01
497.59	1.2169E-01
497.79	1.1794E-01
497.99	1.2119E-01
498.19	1.2235E-01
498.39	1.2276E-01
498.59	1.1906E-01
498.79	1.1832E-01
498.99	1.1851E-01
499.19	1.2091E-01
499.39	1.2125E-01
499.59	1.1851E-01
499.79	1.1895E-01
499.99	1.1876E-01
500.19	1.2238E-01
500.40	1.1923E-01
500.60	1.2198E-01
500.80	1.2142E-01
501.00	1.2015E-01
501.20	1.1921E-01
501.40	1.2372E-01
501.60	1.2053E-01
501.80	1.2060E-01
502.00	1.2302E-01
502.20	1.2112E-01
502.40	1.2130E-01
502.60	1.1815E-01
502.80	1.2587E-01
503.00	1.2366E-01
503.20	1.2137E-01
503.40	1.2019E-01
503.60	1.2194E-01
503.80	1.2531E-01
504.00	1.2295E-01
504.20	1.2591E-01
504.40	1.2541E-01
504.60	1.2794E-01
504.80	1.2799E-01
505.00	1.2714E-01
505.20	1.3003E-01
505.40	1.2813E-01
505.60	1.2710E-01
505.80	1.2890E-01
506.00	1.2917E-01
506.20	1.2819E-01
506.40	1.2842E-01
506.60	1.2864E-01
506.80	1.2681E-01
507.00	1.2950E-01
507.20	1.3082E-01
507.40	1.3275E-01
507.60	1.2937E-01
507.80	1.3122E-01
508.00	1.3186E-01
508.20	1.3501E-01
508.40	1.3288E-01
508.60	1.2989E-01
508.80	1.2776E-01
509.00	1.3530E-01
509.20	1.3238E-01
509.40	1.3084E-01
509.60	1.3254E-01
509.80	1.3070E-01
510.00	1.3535E-01
510.20	1.3414E-01
510.40	1.3538E-01
510.60	1.3274E-01
510.80	1.3137E-01
511.00	1.3092E-01
511.20	1.3670E-01
511.40	1.3286E-01
511.60	1.3364E-01
511.80	1.3455E-01
512.00	1.3441E-01
512.20	1.3604E-01
512.40	1.3357E-01
512.60	1.3470E-01
512.80	1.3478E-01
513.00	1.3739E-01
513.20	1.3591E-01
513.40	1.3401E-01
513.59	1.3238E-01
513.79	1.3586E-01
513.99	1.3465E-01
514.19	1.3575E-01
514.39	1.3414E-01
514.59	1.3696E-01
514.79	1.3433E-01
514.99	1.3425E-01
515.19	1.3591E-01
515.39	1.3653E-01
515.59	1.3713E-01
515.79	1.3228E-01
515.99	1.3873E-01
516.19	1.3823E-01
516.39	1.3727E-01
516.59	1.3887E-01
516.79	1.4203E-01
516.98	1.3778E-01
517.18	1.4299E-01
517.38	1.4290E-01
517.58	1.4362E-01
517.78	1.4414E-01
517.98	1.4507E-01
518.18	1.4651E-01
518.38	1.5235E-01
518.58	1.4901E-01
518.78	1.4910E-01
518.98	1.5006E-01
519.18	1.5272E-01
519.38	1.5598E-01
519.57	1.5578E-01
519.77	1.5422E-01
519.97	1.5869E-01
520.17	1.5829E-01
520.37	1.5868E-01
520.57	1.6170E-01
520.77	1.6320E-01
520.97	1.6339E-01
521.17	1.6237E-01
521.37	1.6572E-01
521.57	1.6834E-01
521.76	1.6576E-01
521.96	1.6969E-01
522.16	1.6891E-01
522.36	1.7408E-01
522.56	1.6840E-01
522.76	1.7147E-01
522.96	1.7562E-01
523.16	1.7343E-01
523.36	1.7678E-01
523.55	1.7360E-01
523.75	1.7479E-01
523.95	1.7528E-01
524.15	1.7295E-01
524.35	1.7519E-01
524.55	1.7604E-01
524.75	1.7854E-01
524.95	1.7942E-01
525.14	1.7779E-01
525.34	1.7713E-01
525.54	1.7513E-01
525.74	1.7848E-01
525.94	1.7967E-01
526.14	1.8281E-01
526.34	1.8262E-01
526.54	1.8606E-01
526.73	1.8180E-01
526.93	1.8714E-01
527.13	1.8807E-01
527.33	1.8956E-01
527.53	1.9222E-01
527.73	1.9001E-01
527.93	1.9362E-01
528.12	1.8926E-01
528.32	1.9223E-01
528.52	1.9695E-01
528.72	1.9907E-01
528.92	1.9684E-01
529.12	1.9782E-01
529.32	1.9942E-01
529.51	2.0167E-01
529.71	2.0233E-01
529.91	2.0241E-01
530.11	2.0492E-01
530.31	2.0884E-01
530.51	2.0441E-01
530.70	2.0410E-01
530.90	2.0729E-01
531.10	2.0565E-01
531.30	2.0791E-01
531.50	2.0710E-01
531.70	2.0814E-01
531.89	2.0507E-01
532.09	2.0648E-01
532.29	2.0661E-01
532.49	2.1136E-01
532.69	2.1031E-01
532.88	2.0980E-01
533.08	2.0714E-01
533.28	2.1029E-01
533.48	2.1499E-01
533.68	2.1272E-01
533.88	2.1805E-01
534.07	2.1729E-01
534.27	2.1710E-01
534.47	2.1944E-01
534.67	2.1375E-01
534.87	2.1927E-01
535.06	2.1931E-01
535.26	2.1747E-01
535.46	2.1683E-01
535.66	2.2555E-01
535.86	2.2002E-01
536.05	2.2018E-01
536.25	2.2203E-01
536.45	2.2320E-01
536.65	2.2317E-01
536.85	2.2137E-01
537.04	2.2407E-01
537.24	2.2866E-01
537.44	2.2014E-01
537.64	2.1830E-01
537.83	2.2524E-01
538.03	2.2616E-01
538.23	2.2882E-01
538.43	2.2792E-01
538.63	2.2359E-01
538.82	2.2595E-01
539.02	2.2645E-01
539.22	2.2922E-01
539.42	2.2553E-01
539.61	2.2857E-01
539.81	2.2924E-01
540.01	2.2529E-01
540.21	2.2785E-01
540.41	2.2674E-01
540.60	2.2833E-01
540.80	2.2831E-01
541.00	2.2869E-01
541.20	2.3258E-01
541.39	2.3174E-01
541.59	2.3134E-01
541.79	2.3188E-01
541.99	2.3605E-01
542.18	2.3379E-01
542.38	2.3405E-01
542.58	2.3392E-01
542.78	2.3613E-01
542.97	2.3188E-01
543.17	2.3690E-01
543.37	2.3384E-01
543.57	2.3976E-01
543.76	2.4406E-01
543.96	2.4198E-01
544.16	2.3865E-01
544.36	2.4164E-01
544.55	2.4698E-01
544.75	2.4351E-01
544.95	2.4639E-01
545.14	2.3856E-01
545.34	2.4722E-01
545.54	2.4295E-01
545.74	2.4466E-01
545.93	2.4884E-01
546.13	2.4793E-01
546.33	2.4475E-01
546.53	2.4406E-01
546.72	2.5053E-01
546.92	2.5047E-01
547.12	2.4763E-01
547.31	2.5081E-01
547.51	2.4887E-01
547.71	2.5378E-01
547.91	2.5359E-01
548.10	2.4728E-01
548.30	2.5051E-01
548.50	2.5695E-01
548.69	2.5561E-01
548.89	2.5505E-01
549.09	2.5598E-01
549.29	2.5400E-01
549.48	2.6304E-01
549.68	2.5345E-01
549.88	2.5923E-01
550.07	2.6125E-01
550.27	2.6023E-01
550.47	2.4208E-01
550.66	2.6631E-01
550.86	2.5648E-01
551.06	2.6685E-01
551.25	2.5989E-01
551.45	2.6652E-01
551.65	2.6739E-01
551.85	2.7046E-01
552.04	2.5883E-01
552.24	2.6571E-01
552.44	2.6238E-01
552.63	2.6174E-01
552.83	2.6589E-01
553.03	2.6052E-01
553.22	2.6984E-01
553.42	2.6405E-01
553.62	2.7228E-01
553.81	2.6524E-01
554.01	2.7039E-01
554.21	2.6481E-01
554.40	2.6921E-01
554.60	2.6729E-01
554.80	2.7005E-01
554.99	2.6986E-01
555.19	2.6975E-01
555.39	2.7158E-01
555.58	2.6717E-01
555.78	2.6884E-01
555.98	2.6731E-01
556.17	2.6802E-01
556.37	2.6981E-01
556.56	2.6987E-01
556.76	2.6983E-01
556.96	2.6689E-01
557.15	2.6908E-01
557.35	2.6726E-01
557.55	2.6753E-01
557.74	2.6727E-01
557.94	2.7085E-01
558.14	2.7306E-01
558.33	2.6717E-01
558.53	2.6658E-01
558.73	2.7014E-01
558.92	2.6584E-01
559.12	2.7455E-01
559.31	2.7540E-01
559.51	2.7860E-01
559.71	2.7342E-01
559.90	2.7707E-01
560.10	2.7683E-01
560.30	2.7583E-01
560.49	2.7327E-01
560.69	2.7758E-01
560.88	2.8084E-01
561.08	2.7211E-01
561.28	2.7366E-01
561.47	2.7846E-01
561.67	2.7904E-01
561.86	2.7537E-01
562.06	2.7793E-01
562.26	2.8066E-01
562.45	2.7734E-01
562.65	2.7984E-01
562.84	2.7331E-01
563.04	2.7642E-01
563.24	2.7497E-01
563.43	2.8061E-01
563.63	2.8063E-01
563.82	2.7718E-01
564.02	2.8107E-01
564.22	2.8274E-01
564.41	2.7605E-01
564.61	2.7979E-01
564.80	2.8067E-01
565.00	2.7718E-01
565.20	2.8282E-01
565.39	2.7514E-01
565.59	2.7221E-01
565.78	2.7774E-01
565.98	2.7234E-01
566.18	2.8087E-01
566.37	2.7736E-01
566.57	2.7472E-01
566.76	2.7302E-01
566.96	2.7989E-01
567.15	2.7392E-01
567.35	2.8252E-01
567.55	2.7731E-01
567.74	2.7764E-01
567.94	2.7447E-01
568.13	2.7759E-01
568.33	2.8164E-01
568.52	2.8125E-01
568.72	2.7766E-01
568.91	2.7618E-01
569.11	2.7742E-01
569.31	2.8370E-01
569.50	2.7611E-01
569.70	2.8066E-01
569.89	2.7857E-01
570.09	2.7748E-01
570.28	2.7628E-01
570.48	2.7943E-01
570.67	2.8541E-01
570.87	2.7755E-01
571.07	2.7816E-01
571.26	2.8420E-01
571.46	2.8282E-01
571.65	2.8521E-01
571.85	2.8784E-01
572.04	2.8468E-01
572.24	2.9067E-01
572.43	2.8478E-01
572.63	2.8995E-01
572.82	2.8577E-01
573.02	2.9035E-01
573.21	2.8592E-01
573.41	2.8889E-01
573.60	2.9323E-01
573.80	2.9132E-01
573.99	2.8890E-01
574.19	2.9453E-01
574.38	2.8981E-01
574.58	2.9150E-01
574.78	2.8571E-01
574.97	2.9175E-01
575.17	2.8946E-01
575.36	2.8672E-01
575.56	2.8384E-01
575.75	2.9225E-01
575.95	2.8709E-01
576.14	2.8471E-01
576.34	2.9162E-01
576.53	2.8592E-01
576.73	2.8738E-01
576.92	2.8253E-01
577.12	2.9270E-01
577.31	2.8020E-01
577.51	2.9373E-01
577.70	2.8924E-01
577.90	2.8901E-01
578.09	2.9203E-01
578.29	2.8709E-01
578.48	2.9451E-01
578.68	2.9061E-01
578.87	2.9915E-01
579.06	2.9042E-01
579.26	2.9464E-01
579.45	2.9093E-01
579.65	3.0077E-01
579.84	2.9449E-01
580.04	2.9912E-01
580.23	3.0171E-01
580.43	2.9227E-01
580.62	2.9863E-01
580.82	2.9989E-01
581.01	2.9783E-01
581.21	2.9721E-01
581.40	2.9573E-01
581.60	3.0190E-01
581.79	3.0355E-01
581.99	2.9773E-01
582.18	2.9837E-01
582.37	3.0222E-01
582.57	3.0210E-01
582.76	3.0538E-01
582.96	3.0646E-01
583.15	3.0507E-01
583.35	3.0492E-01
583.54	3.0636E-01
583.74	3.0543E-01
583.93	3.0157E-01
584.12	2.9880E-01
584.32	3.0891E-01
584.51	3.0523E-01
584.71	2.9904E-01
584.90	2.9990E-01
585.10	3.0103E-01
585.29	3.0197E-01
585.49	3.0276E-01
585.68	3.0476E-01
585.87	3.0258E-01
586.07	3.0124E-01
586.26	2.9931E-01
586.46	2.9933E-01
586.65	2.9729E-01
586.85	2.9972E-01
587.04	2.9048E-01
587.23	2.9959E-01
587.43	2.9658E-01
587.62	2.8638E-01
587.82	2.9518E-01
588.01	2.8980E-01
588.20	2.9121E-01
588.40	2.8524E-01
588.59	2.8956E-01
588.79	2.9137E-01
588.98	2.9454E-01
589.18	2.9050E-01
589.37	2.9488E-01
589.56	2.8825E-01
589.76	2.8618E-01
589.95	2.9626E-01
590.15	2.9239E-01
590.34	2.8858E-01
590.53	2.9738E-01
590.73	2.9243E-01
590.92	2.9317E-01
591.11	2.9790E-01
591.31	2.9833E-01
591.50	3.0222E-01
591.70	2.9887E-01
591.89	3.0598E-01
592.08	2.9818E-01
592.28	2.9611E-01
592.47	3.0516E-01
592.67	3.0447E-01
592.86	3.0496E-01
593.05	2.9871E-01
593.25	3.0654E-01
593.44	3.0323E-01
593.63	3.0998E-01
593.83	3.0376E-01
594.02	3.1225E-01
594.22	3.1225E-01
594.41	3.1607E-01
594.60	3.1047E-01
594.80	3.1241E-01
594.99	3.1284E-01
595.18	3.1311E-01
595.38	3.1131E-01
595.57	3.1400E-01
595.76	3.1630E-01
595.96	3.1496E-01
596.15	3.0939E-01
596.34	3.2388E-01
596.54	3.2346E-01
596.73	3.2003E-01
596.93	3.2291E-01
597.12	3.1915E-01
597.31	3.2448E-01
597.51	3.2137E-01
597.70	3.2331E-01
597.89	3.2155E-01
598.09	3.1994E-01
598.28	3.3295E-01
598.47	3.2306E-01
598.67	3.2553E-01
598.86	3.2071E-01
599.05	3.3064E-01
599.25	3.2672E-01
599.44	3.3056E-01
599.63	3.3460E-01
599.83	3.2812E-01
600.02	3.2878E-01
600.21	3.2987E-01
600.41	3.3325E-01
600.60	3.2654E-01
600.79	3.3244E-01
600.98	3.3288E-01
601.18	3.4066E-01
601.37	3.3038E-01
601.56	3.3231E-01
601.76	3.4520E-01
601.95	3.3418E-01
602.14	3.3754E-01
602.34	3.3714E-01
602.53	3.4408E-01
602.72	3.3724E-01
602.92	3.4308E-01
603.11	3.3999E-01
603.30	3.4531E-01
603.49	3.4106E-01
603.69	3.5070E-01
603.88	3.4609E-01
604.07	3.5042E-01
604.27	3.4593E-01
604.46	3.3998E-01
604.65	3.4631E-01
604.84	3.4588E-01
605.04	3.5011E-01
605.23	3.4771E-01
605.42	3.4828E-01
605.62	3.5113E-01
605.81	3.4576E-01
606.00	3.4717E-01
606.19	3.5143E-01
606.39	3.5140E-01
606.58	3.4597E-01
606.77	3.4768E-01
606.97	3.4332E-01
607.16	3.5068E-01
607.35	3.5234E-01
607.54	3.4780E-01
607.74	3.5400E-01
607.93	3.5483E-01
608.12	3.4782E-01
608.31	3.5124E-01
608.51	3.5300E-01
608.70	3.4911E-01
608.89	3.4783E-01
609.08	3.4374E-01
609.28	3.5002E-01
609.47	3.5157E-01
609.66	3.5349E-01
609.85	3.5528E-01
610.05	3.5686E-01
610.24	3.5114E-01
610.43	3.5484E-01
610.62	3.5243E-01
610.82	3.5031E-01
611.01	3.5511E-01
611.20	3.5235E-01
611.39	3.5308E-01
611.59	3.5243E-01
611.78	3.5620E-01
611.97	3.5515E-01
612.16	3.6109E-01
612.35	3.5247E-01
612.55	3.5444E-01
612.74	3.5857E-01
612.93	3.5802E-01
613.12	3.5187E-01
613.32	3.5628E-01
613.51	3.5733E-01
613.70	3.5627E-01
613.89	3.5688E-01
614.08	3.5814E-01
614.28	3.5621E-01
614.47	3.5257E-01
614.66	3.5557E-01
614.85	3.6024E-01
615.04	3.5943E-01
615.24	3.6655E-01
615.43	3.6050E-01
615.62	3.5867E-01
615.81	3.5969E-01
616.00	3.5205E-01
616.20	3.6009E-01
616.39	3.6162E-01
616.58	3.6186E-01
616.77	3.6327E-01
616.96	3.7219E-01
617.16	3.7136E-01
617.35	3.6896E-01
617.54	3.6521E-01
617.73	3.6336E-01
617.92	3.6525E-01
618.12	3.7417E-01
618.31	3.7193E-01
618.50	3.7487E-01
618.69	3.7171E-01
618.88	3.8182E-01
619.07	3.7716E-01
619.27	3.7993E-01
619.46	3.8111E-01
619.65	3.8750E-01
619.84	3.7909E-01
620.03	3.7836E-01
620.22	3.8755E-01
620.42	3.7394E-01
620.61	3.8948E-01
620.80	3.8739E-01
620.99	3.8655E-01
621.18	3.9372E-01
621.37	3.8500E-01
621.57	3.7757E-01
621.76	3.8951E-01
621.95	3.8728E-01
622.14	3.8111E-01
622.33	3.7838E-01
622.52	3.8318E-01
622.71	3.8862E-01
622.91	3.9105E-01
623.10	3.8918E-01
623.29	3.8700E-01
623.48	3.8449E-01
623.67	3.9032E-01
623.86	3.8994E-01
624.05	3.8904E-01
624.25	3.8373E-01
624.44	3.9118E-01
624.63	3.9591E-01
624.82	3.9113E-01
625.01	3.8742E-01
625.20	3.9461E-01
625.39	3.8464E-01
625.58	3.9372E-01
625.78	3.9641E-01
625.97	3.8408E-01
626.16	3.8983E-01
626.35	3.8848E-01
626.54	3.9619E-01
626.73	3.9692E-01
626.92	3.9320E-01
627.11	3.9285E-01
627.31	3.9231E-01
627.50	3.9120E-01
627.69	3.9678E-01
627.88	4.0010E-01
628.07	3.8365E-01
628.26	3.9377E-01
628.45	3.9131E-01
628.64	3.9404E-01
628.83	3.9270E-01
629.02	3.8258E-01
629.22	4.0488E-01
629.41	3.9259E-01
629.60	3.8459E-01
629.79	4.0121E-01
629.98	3.9383E-01
630.17	3.9892E-01
630.36	3.9725E-01
630.55	3.9838E-01
630.74	4.0041E-01
630.93	4.0586E-01
631.12	3.9368E-01
631.31	3.9441E-01
631.51	4.0389E-01
631.70	4.0125E-01
631.89	3.9415E-01
632.08	3.9641E-01
632.27	3.9969E-01
632.46	3.9727E-01
632.65	3.9894E-01
632.84	3.9209E-01
633.03	4.0672E-01
633.22	3.9955E-01
633.41	4.0734E-01
633.60	4.0704E-01
633.79	4.0052E-01
633.98	3.9182E-01
634.17	4.0223E-01
634.37	4.0301E-01
634.56	4.0876E-01
634.75	3.9683E-01
634.94	4.0746E-01
635.13	4.0275E-01
635.32	4.1052E-01
635.51	4.0935E-01
635.70	4.0119E-01
635.89	4.1832E-01
636.08	4.0667E-01
636.27	4.0126E-01
636.46	4.1235E-01
636.65	4.0745E-01
636.84	4.0278E-01
637.03	4.1365E-01
637.22	4.1200E-01
637.41	4.0823E-01
637.60	4.1301E-01
637.79	4.1471E-01
637.98	4.1231E-01
638.17	4.1219E-01
638.36	4.0503E-01
638.55	3.9954E-01
638.74	4.0089E-01
638.93	4.0356E-01
639.12	4.0171E-01
639.31	4.0316E-01
639.50	4.0028E-01
639.69	3.9787E-01
639.88	4.0722E-01
640.07	3.9948E-01
640.26	4.0838E-01
640.45	4.0404E-01
640.64	4.0532E-01
640.83	4.0345E-01
641.02	4.0949E-01
641.21	4.0178E-01
641.40	3.9041E-01
641.59	4.0307E-01
641.78	4.0529E-01
641.97	4.0335E-01
642.16	4.0655E-01
642.35	4.0558E-01
642.54	4.0576E-01
642.73	4.0175E-01
642.92	3.8622E-01
643.11	4.0602E-01
643.30	4.0776E-01
643.49	3.9900E-01
643.68	4.0288E-01
643.87	3.9342E-01
644.06	4.0152E-01
644.25	3.9516E-01
644.44	3.9685E-01
644.63	3.9507E-01
644.82	3.9535E-01
645.01	3.9997E-01
645.20	3.9797E-01
645.39	3.9317E-01
645.58	3.8974E-01
645.77	3.8961E-01
645.96	3.9716E-01
646.15	3.9078E-01
646.34	3.9225E-01
646.53	3.9046E-01
646.72	3.9243E-01
646.91	3.8461E-01
647.10	3.9932E-01
647.29	3.8851E-01
647.47	3.9411E-01
647.66	3.8733E-01
647.85	3.8363E-01
648.04	3.8391E-01
648.23	3.8412E-01
648.42	4.0030E-01
648.61	3.7969E-01
648.80	3.8915E-01
648.99	3.9391E-01
649.18	3.8348E-01
649.37	3.9404E-01
649.56	3.9100E-01
649.75	3.8886E-01
649.94	3.9829E-01
650.13	3.9535E-01
650.31	3.9710E-01
650.50	3.9230E-01
650.69	3.9781E-01
650.88	3.9377E-01
651.07	3.9527E-01
651.26	3.9790E-01
651.45	4.0714E-01
651.64	4.0026E-01
651.83	3.9214E-01
652.02	3.9872E-01
652.21	3.9417E-01
652.40	3.9482E-01
652.58	4.0864E-01
652.77	3.9087E-01
652.96	3.8776E-01
653.15	3.9632E-01
653.34	3.9457E-01
653.53	3.9375E-01
653.72	3.9164E-01
653.91	3.8205E-01
654.10	3.8639E-01
654.29	3.7919E-01
654.47	3.9321E-01
654.66	3.7355E-01
654.85	3.7639E-01
655.04	3.7198E-01
655.23	3.8066E-01
655.42	3.6961E-01
655.61	3.7824E-01
655.80	3.7651E-01
655.98	3.8290E-01
656.17	3.8124E-01
656.36	3.8472E-01
656.55	3.7979E-01
656.74	3.9372E-01
656.93	3.9218E-01
657.12	3.9426E-01
657.31	3.8602E-01
657.49	4.0424E-01
657.68	4.0082E-01
657.87	3.8801E-01
658.06	4.0890E-01
658.25	3.9832E-01
658.44	4.0762E-01
658.63	4.0248E-01
658.81	4.0007E-01
659.00	4.0731E-01
659.19	4.0381E-01
659.38	4.1857E-01
659.57	4.1873E-01
659.76	4.1028E-01
659.95	4.2319E-01
660.13	4.0573E-01
660.32	4.1736E-01
660.51	4.1298E-01
660.70	4.2090E-01
660.89	4.1453E-01
661.08	4.1802E-01
661.26	4.1240E-01
661.45	4.2001E-01
661.64	4.1373E-01
661.83	4.1329E-01
662.02	4.1663E-01
662.21	4.2373E-01
662.39	4.2740E-01
662.58	4.1997E-01
662.77	4.3439E-01
662.96	4.2695E-01
663.15	4.1867E-01
663.33	4.3263E-01
663.52	4.2366E-01
663.71	4.2323E-01
663.90	4.2410E-01
664.09	4.1467E-01
664.28	4.2295E-01
664.46	4.1793E-01
664.65	4.1993E-01
664.84	4.1385E-01
665.03	4.2365E-01
665.22	4.2746E-01
665.40	4.2678E-01
665.59	4.2183E-01
665.78	4.2071E-01
665.97	4.2027E-01
666.16	4.2609E-01
666.34	4.3150E-01
666.53	4.1981E-01
666.72	4.3162E-01
666.91	4.2495E-01
667.09	4.2607E-01
667.28	4.3087E-01
667.47	4.2935E-01
667.66	4.2589E-01
667.85	4.2571E-01
668.03	4.0083E-01
668.22	4.3236E-01
668.41	4.2698E-01
668.60	4.1072E-01
668.78	4.3223E-01
668.97	4.2401E-01
669.16	4.1837E-01
669.35	4.3224E-01
669.54	4.1866E-01
669.72	4.3369E-01
669.91	4.2651E-01
670.10	4.3056E-01
670.29	4.2936E-01
670.47	4.3486E-01
670.66	4.3825E-01
670.85	4.3033E-01
671.04	4.2115E-01
671.22	4.2130E-01
671.41	4.3047E-01
671.60	4.3128E-01
671.79	4.3197E-01
671.97	4.2513E-01
672.16	4.3981E-01
672.35	4.3500E-01
672.54	4.3462E-01
672.72	4.2791E-01
672.91	4.2259E-01
673.10	4.2841E-01
673.28	4.2475E-01
673.47	4.2688E-01
673.66	4.2744E-01
673.85	4.3978E-01
674.03	4.3216E-01
674.22	4.3164E-01
674.41	4.2498E-01
674.60	4.2583E-01
674.78	4.1598E-01
674.97	4.2181E-01
675.16	4.4556E-01
675.34	4.3551E-01
675.53	4.2836E-01
675.72	4.2313E-01
675.91	4.4512E-01
676.09	4.3466E-01
676.28	4.4144E-01
676.47	4.3829E-01
676.65	4.2535E-01
676.84	4.3535E-01
677.03	4.4166E-01
677.22	4.3048E-01
677.40	4.3983E-01
677.59	4.3605E-01
677.78	4.3282E-01
677.96	4.3661E-01
678.15	4.4380E-01
678.34	4.5216E-01
678.52	4.3419E-01
678.71	4.3808E-01
678.90	4.4036E-01
679.08	4.4411E-01
679.27	4.3488E-01
679.46	4.5205E-01
679.64	4.4428E-01
679.83	4.3876E-01
680.02	4.4089E-01
680.21	4.2577E-01
680.39	4.4979E-01
680.58	4.4302E-01
680.77	4.3916E-01
680.95	4.4157E-01
681.14	4.3002E-01
681.33	4.4132E-01
681.51	4.4800E-01
681.70	4.4376E-01
681.89	4.4898E-01
682.07	4.4089E-01
682.26	4.2723E-01
682.44	4.4537E-01
682.63	4.4355E-01
682.82	4.4771E-01
683.00	4.2337E-01
683.19	4.3754E-01
683.38	4.4215E-01
683.56	4.4426E-01
683.75	4.3815E-01
683.94	4.2491E-01
684.12	4.2236E-01
684.31	4.3385E-01
684.50	4.3491E-01
684.68	4.2146E-01
684.87	4.1897E-01
685.05	4.2088E-01
685.24	4.0628E-01
685.43	4.1225E-01
685.61	4.1098E-01
685.80	3.9918E-01
685.99	4.0909E-01
686.17	3.9458E-01
686.36	4.0880E-01
686.54	4.0694E-01
686.73	4.0161E-01
686.92	4.0209E-01
687.10	3.9610E-01
687.29	4.0483E-01
687.48	3.9399E-01
687.66	4.1200E-01
687.85	3.9668E-01
688.03	4.0280E-01
688.22	3.9308E-01
688.41	4.0829E-01
688.59	3.9373E-01
688.78	4.1068E-01
688.96	4.1522E-01
689.15	4.2323E-01
689.34	3.9731E-01
689.52	4.2916E-01
689.71	4.1906E-01
689.89	4.2522E-01
690.08	4.3676E-01
690.27	4.2727E-01
690.45	4.2282E-01
690.64	4.2158E-01
690.82	4.1553E-01
691.01	4.2791E-01
691.19	4.2406E-01
691.38	4.2987E-01
691.57	4.3865E-01
691.75	4.2706E-01
691.94	4.4128E-01
692.12	4.3138E-01
692.31	4.4309E-01
692.50	4.3627E-01
692.68	4.4341E-01
692.87	4.5144E-01
693.05	4.4692E-01
693.24	4.3521E-01
693.42	4.4196E-01
693.61	4.5001E-01
693.79	4.5805E-01
693.98	4.4554E-01
694.17	4.5483E-01
694.35	4.6641E-01
694.54	4.6878E-01
694.72	4.6399E-01
694.91	4.6645E-01
695.09	4.6852E-01
695.28	4.7070E-01
695.46	4.7408E-01
695.65	4.7876E-01
695.83	4.8210E-01
696.02	4.9160E-01
696.21	4.9529E-01
696.39	4.8634E-01
696.58	4.9599E-01
696.76	4.7295E-01
696.95	4.8579E-01
697.13	4.8994E-01
697.32	4.9660E-01
697.50	4.9588E-01
697.69	5.0114E-01
697.87	5.0849E-01
698.06	5.0955E-01
698.24	4.9916E-01
698.43	5.0269E-01
698.61	5.1938E-01
698.80	5.0956E-01
698.98	5.2001E-01
699.17	4.9411E-01
699.35	5.1403E-01
699.54	5.0868E-01
699.72	4.9627E-01
699.91	5.1948E-01
700.09	5.1960E-01
700.28	5.2251E-01
700.46	5.2338E-01
700.65	5.1954E-01
700.83	5.2632E-01
701.02	5.3222E-01
701.20	5.0825E-01
701.39	5.3957E-01
701.57	5.2975E-01
701.76	5.1915E-01
701.94	5.3007E-01
702.13	5.3560E-01
702.31	5.1567E-01
702.50	5.6302E-01
702.68	5.5428E-01
702.87	5.6181E-01
703.05	5.6509E-01
703.24	5.5974E-01
703.42	5.3346E-01
703.61	5.6971E-01
703.79	5.7671E-01
703.98	5.5661E-01
704.16	5.6752E-01
704.35	5.6383E-01
704.53	5.7429E-01
704.72	5.7754E-01
704.90	5.8253E-01
705.08	5.6876E-01
705.27	5.9458E-01
705.45	5.9401E-01
705.64	6.0218E-01
705.82	5.9955E-01
706.01	6.0027E-01
706.19	5.9410E-01
706.38	6.0053E-01
706.56	6.1911E-01
706.75	6.1645E-01
706.93	6.1193E-01
707.11	5.9864E-01
707.30	6.2112E-01
707.48	6.1977E-01
707.67	6.0948E-01
707.85	6.1830E-01
708.04	6.2746E-01
708.22	6.2594E-01
708.40	6.1820E-01
708.59	6.1457E-01
708.77	6.3888E-01
708.96	6.3293E-01
709.14	6.4175E-01
709.33	6.3584E-01
709.51	6.4544E-01
709.69	6.4526E-01
709.88	6.5173E-01
710.06	6.5154E-01
710.25	6.4173E-01
710.43	6.5355E-01
710.62	6.6349E-01
710.80	6.5595E-01
710.98	6.6220E-01
711.17	6.5761E-01
711.35	6.6508E-01
711.54	6.7033E-01
711.72	6.5665E-01
711.90	6.7168E-01
712.09	6.7355E-01
712.27	6.5686E-01
712.46	6.7050E-01
712.64	6.5890E-01
712.82	6.7905E-01
713.01	6.7774E-01
713.19	6.7557E-01
713.37	6.6555E-01
713.56	6.6167E-01
713.74	6.7432E-01
713.93	6.6061E-01
714.11	6.5262E-01
714.29	6.3653E-01
714.48	6.5742E-01
714.66	6.5386E-01
714.85	6.3944E-01
715.03	6.4045E-01
715.21	6.3301E-01
715.40	6.1898E-01
715.58	6.1788E-01
715.76	6.0278E-01
715.95	6.0489E-01
716.13	6.1592E-01
716.31	6.0212E-01
716.50	5.9402E-01
716.68	5.8275E-01
716.87	5.9029E-01
717.05	5.8666E-01
717.23	5.6805E-01
717.42	5.7718E-01
717.60	5.6789E-01
717.78	5.7317E-01
717.97	5.7189E-01
718.15	5.6564E-01
718.33	5.6046E-01
718.52	5.7200E-01
718.70	5.7986E-01
718.88	5.6723E-01
719.07	5.9816E-01
719.25	5.8161E-01
719.43	5.9291E-01
719.62	5.9201E-01
719.80	5.9598E-01
719.98	6.1735E-01
720.17	6.1282E-01
720.35	6.1544E-01
720.53	6.3033E-01
720.72	6.3794E-01
720.90	6.3067E-01
721.08	6.2625E-01
721.27	6.3378E-01
721.45	6.3673E-01
721.63	6.3615E-01
721.82	6.4659E-01
722.00	6.3863E-01
722.18	6.3885E-01
722.36	6.5444E-01
722.55	6.4834E-01
722.73	6.4950E-01
722.91	6.4869E-01
723.10	6.5965E-01
723.28	6.4935E-01
723.46	6.2477E-01
723.65	6.4305E-01
723.83	6.4328E-01
724.01	6.3994E-01
724.19	6.5120E-01
724.38	6.5294E-01
724.56	6.6055E-01
724.74	6.6740E-01
724.93	6.4313E-01
725.11	6.4862E-01
725.29	6.6584E-01
725.47	6.6400E-01
725.66	6.6541E-01
725.84	6.6238E-01
726.02	6.6770E-01
726.21	6.8307E-01
726.39	6.6938E-01
726.57	6.7623E-01
726.75	6.7090E-01
726.94	6.8875E-01
727.12	6.7637E-01
727.30	6.7632E-01
727.48	6.7192E-01
727.67	6.9118E-01
727.85	6.8213E-01
728.03	6.9225E-01
728.21	7.0520E-01
728.40	6.8994E-01
728.58	7.1273E-01
728.76	7.0469E-01
728.94	7.1537E-01
729.13	7.2574E-01
729.31	7.1151E-01
729.49	7.2787E-01
729.67	7.3162E-01
729.86	7.4034E-01
730.04	7.2824E-01
730.22	7.5561E-01
730.40	7.5701E-01
730.59	7.6444E-01
730.77	7.7277E-01
730.95	7.9287E-01
731.13	7.8996E-01
731.31	7.9913E-01
731.50	7.8671E-01
731.68	8.2193E-01
731.86	8.1498E-01
732.04	8.2928E-01
732.23	8.4714E-01
732.41	8.4244E-01
732.59	8.5315E-01
732.77	8.6006E-01
732.95	8.6621E-01
733.14	8.6203E-01
733.32	8.8550E-01
733.50	8.7946E-01
733.68	8.8090E-01
733.86	8.8353E-01
734.05	8.9600E-01
734.23	9.0239E-01
734.41	8.8020E-01
734.59	8.9665E-01
734.77	9.0331E-01
734.96	8.8340E-01
735.14	9.1471E-01
735.32	9.1200E-01
735.50	9.1213E-01
735.68	9.3114E-01
735.87	9.2047E-01
736.05	9.4206E-01
736.23	9.0615E-01
736.41	9.3725E-01
736.59	9.3314E-01
736.77	9.2829E-01
736.96	9.2930E-01
737.14	9.1880E-01
737.32	9.4694E-01
737.50	9.5567E-01
737.68	9.5172E-01
737.87	9.6025E-01
738.05	9.7344E-01
738.23	9.4412E-01
738.41	9.5831E-01
738.59	9.6619E-01
738.77	9.7538E-01
738.95	9.9085E-01
739.14	9.6728E-01
739.32	9.7361E-01
739.50	1.0013E00
739.68	9.7796E-01
739.86	9.8854E-01
740.04	9.8808E-01
740.23	9.7244E-01
740.41	9.9817E-01
740.59	1.0043E00
740.77	1.0146E00
740.95	1.0050E00
741.13	9.9962E-01
741.31	9.9534E-01
741.50	1.0014E00
741.68	9.9934E-01
741.86	1.0009E00
742.04	1.0216E00
742.22	1.0294E00
742.40	1.0222E00
742.58	1.0300E00
742.76	1.0335E00
742.95	1.0078E00
743.13	1.0416E00
743.31	1.0346E00
743.49	1.0307E00
743.67	1.0519E00
743.85	1.0485E00
744.03	1.0418E00
744.21	1.0536E00
744.39	1.0377E00
744.58	1.0615E00
744.76	1.0605E00
744.94	1.0750E00
745.12	1.0666E00
745.30	1.0567E00
745.48	1.0717E00
745.66	1.0754E00
745.84	1.0540E00
746.02	1.0546E00
746.20	1.0664E00
746.38	1.0748E00
746.57	1.0912E00
746.75	1.0519E00
746.93	1.0806E00
747.11	1.0622E00
747.29	1.0751E00
747.47	1.0897E00
747.65	1.0850E00
747.83	1.0584E00
748.01	1.0786E00
748.19	1.0847E00
748.37	1.0810E00
748.55	1.0831E00
748.73	1.0731E00
748.92	1.0852E00
749.10	1.0727E00
749.28	1.0923E00
749.46	1.0797E00
749.64	1.0725E00
749.82	1.0803E00
750.00	1.0946E00
750.18	1.0884E00
750.36	1.0694E00
750.54	1.0908E00
750.72	1.1022E00
750.90	1.1022E00
751.08	1.0938E00
751.26	1.1069E00
751.44	1.1096E00
751.62	1.1244E00
751.80	1.1110E00
751.98	1.1195E00
752.16	1.1271E00
752.34	1.1311E00
752.52	1.1385E00
752.71	1.1110E00
752.89	1.1083E00
753.07	1.1435E00
753.25	1.1129E00
753.43	1.1483E00
753.61	1.1289E00
753.79	1.1604E00
753.97	1.1560E00
754.15	1.1646E00
754.33	1.1741E00
754.51	1.1776E00
754.69	1.1801E00
754.87	1.1694E00
755.05	1.1728E00
755.23	1.1861E00
755.41	1.1935E00
755.59	1.1129E00
755.77	1.1593E00
755.95	1.1532E00
756.13	1.1230E00
756.31	1.1482E00
756.49	1.1428E00
756.67	1.1182E00
756.85	1.1024E00
757.03	1.0817E00
757.21	1.0698E00
757.39	1.0580E00
757.57	1.0454E00
757.75	1.0008E00
757.93	9.5959E-01
758.11	9.5140E-01
758.29	9.2882E-01
758.47	8.9603E-01
758.65	8.8383E-01
758.83	8.9080E-01
759.01	8.5724E-01
759.18	8.2890E-01
759.36	7.8161E-01
759.54	7.9136E-01
759.72	7.5648E-01
759.90	7.5979E-01
760.08	7.4827E-01
760.26	7.4046E-01
760.44	7.1241E-01
760.62	6.9060E-01
760.80	6.8966E-01
760.98	7.2176E-01
761.16	7.2052E-01
761.34	7.0231E-01
761.52	7.2816E-01
761.70	6.9934E-01
761.88	7.0710E-01
762.06	7.1404E-01
762.24	7.1513E-01
762.42	7.2424E-01
762.60	7.3035E-01
762.78	7.4751E-01
762.95	7.4783E-01
763.13	7.7101E-01
763.31	7.8783E-01
763.49	7.8722E-01
763.67	8.0565E-01
763.85	8.0024E-01
764.03	8.5107E-01
764.21	8.4346E-01
764.39	8.7657E-01
764.57	9.1149E-01
764.75	9.1775E-01
764.93	9.6577E-01
765.11	9.4989E-01
765.28	9.9329E-01
765.46	1.0048E00
765.64	1.0137E00
765.82	1.0419E00
766.00	1.0660E00
766.18	1.0822E00
766.36	1.0962E00
766.54	1.1024E00
766.72	1.1219E00
766.90	1.1665E00
767.07	1.1377E00
767.25	1.1722E00
767.43	1.1905E00
767.61	1.2148E00
767.79	1.2239E00
767.97	1.2256E00
768.15	1.2238E00
768.33	1.2190E00
768.51	1.2487E00
768.68	1.2553E00
768.86	1.2467E00
769.04	1.2582E00
769.22	1.2993E00
769.40	1.2968E00
769.58	1.2833E00
769.76	1.3205E00
769.94	1.3170E00
770.11	1.2925E00
770.29	1.3066E00
770.47	1.3083E00
770.65	1.3132E00
770.83	1.3111E00
771.01	1.3246E00
771.19	1.3213E00
771.36	1.3015E00
771.54	1.3258E00
771.72	1.3138E00
771.90	1.2944E00
772.08	1.3201E00
772.26	1.3378E00
772.44	1.3015E00
772.61	1.3245E00
772.79	1.2984E00
772.97	1.3270E00
773.15	1.3448E00
773.33	1.3055E00
773.51	1.3298E00
773.68	1.3068E00
773.86	1.2968E00
774.04	1.3142E00
774.22	1.2950E00
774.40	1.3079E00
774.58	1.3197E00
774.75	1.3140E00
774.93	1.2853E00
775.11	1.3222E00
775.29	1.2980E00
775.47	1.2766E00
775.64	1.3102E00
775.82	1.2942E00
776.00	1.2998E00
776.18	1.2779E00
776.36	1.2807E00
776.53	1.3137E00
776.71	1.2788E00
776.89	1.2726E00
777.07	1.2890E00
777.25	1.2845E00
777.42	1.2826E00
777.60	1.2679E00
777.78	1.2880E00
777.96	1.2735E00
778.14	1.2920E00
778.31	1.2736E00
778.49	1.2447E00
778.67	1.2549E00
778.85	1.2657E00
779.03	1.2764E00
779.20	1.2749E00
779.38	1.2671E00
779.56	1.2444E00
779.74	1.2751E00
779.91	1.2568E00
780.09	1.2502E00
780.27	1.2325E00
780.45	1.2410E00
780.62	1.2535E00
780.80	1.2604E00
780.98	1.2285E00
781.16	1.2115E00
781.34	1.2437E00
781.51	1.2451E00
781.69	1.2480E00
781.87	1.2366E00
782.05	1.2274E00
782.22	1.2289E00
782.40	1.2143E00
782.58	1.2220E00
782.76	1.2011E00
782.93	1.2247E00
783.11	1.2381E00
783.29	1.2054E00
783.47	1.2053E00
783.64	1.2113E00
783.82	1.1925E00
784.00	1.1665E00
784.17	1.1912E00
784.35	1.1949E00
784.53	1.1820E00
784.71	1.1930E00
784.88	1.1771E00
785.06	1.2071E00
785.24	1.1813E00
785.42	1.1968E00
785.59	1.1869E00
785.77	1.1511E00
785.95	1.1659E00
786.12	1.1458E00
786.30	1.1654E00
786.48	1.1584E00
786.65	1.1488E00
786.83	1.1529E00
787.01	1.1548E00
787.19	1.1424E00
787.36	1.1497E00
787.54	1.1421E00
787.72	1.1490E00
787.89	1.1429E00
788.07	1.1333E00
788.25	1.1287E00
788.42	1.1189E00
788.60	1.1413E00
788.78	1.1171E00
788.96	1.1176E00
789.13	1.0982E00
789.31	1.1000E00
789.49	1.1001E00
789.66	1.1154E00
789.84	1.0927E00
790.02	1.0659E00
790.19	1.0886E00
790.37	1.0965E00
790.55	1.0857E00
790.72	1.0879E00
790.90	1.1124E00
791.08	1.0769E00
791.25	1.0809E00
791.43	1.0865E00
791.61	1.0715E00
791.78	1.0714E00
791.96	1.0445E00
792.14	1.0712E00
792.31	1.0848E00
792.49	1.0413E00
792.67	1.0907E00
792.84	1.0547E00
793.02	1.0586E00
793.19	1.0479E00
793.37	1.0725E00
793.55	1.0728E00
793.72	1.0636E00
793.90	1.0332E00
794.08	1.0530E00
794.25	1.0575E00
794.43	1.0393E00
794.61	1.0547E00
794.78	1.0527E00
794.96	1.0265E00
795.13	1.0501E00
795.31	1.0561E00
795.49	1.0277E00
795.66	1.0471E00
795.84	1.0361E00
796.01	1.0405E00
796.19	1.0272E00
796.37	1.0486E00
796.54	1.0420E00
796.72	1.0488E00
796.90	1.0351E00
797.07	1.0182E00
797.25	1.0394E00
797.42	1.0567E00
797.60	1.0527E00
797.78	1.0400E00
797.95	1.0203E00
798.13	1.0079E00
798.30	1.0339E00
798.48	1.0286E00
798.66	1.0492E00
798.83	1.0083E00
799.01	1.0297E00
799.18	1.0127E00
799.36	1.0415E00
799.53	9.8984E-01
799.71	1.0326E00
799.89	1.0103E00
800.06	1.0108E00
800.24	1.0099E00
800.41	9.8094E-01
800.59	1.0230E00
800.76	9.8566E-01
800.94	9.8408E-01
801.12	1.0063E00
801.29	1.0018E00
801.47	1.0102E00
801.64	9.8177E-01
801.82	1.0086E00
801.99	1.0040E00
802.17	1.0004E00
802.34	9.9032E-01
802.52	9.8850E-01
802.70	1.0000E00
802.87	9.7309E-01
803.05	9.6037E-01
803.22	1.0068E00
803.40	9.8074E-01
803.57	9.8185E-01
803.75	1.0075E00
803.92	9.9031E-01
804.10	9.6142E-01
804.27	9.6525E-01
804.45	9.8194E-01
804.63	9.7272E-01
804.80	9.6216E-01
804.98	9.8188E-01
805.15	9.5063E-01
805.33	1.0006E00
805.50	1.0060E00
805.68	9.9887E-01
805.85	1.0109E00
806.03	9.8951E-01
806.20	9.9416E-01
806.38	9.4244E-01
806.55	9.5585E-01
806.73	1.0068E00
806.90	9.7709E-01
807.08	9.6626E-01
807.25	9.4250E-01
807.43	9.7109E-01
807.60	9.8359E-01
807.78	9.5356E-01
807.95	9.2819E-01
808.13	9.4495E-01
808.30	9.3765E-01
808.48	9.6745E-01
808.65	9.5018E-01
808.83	9.7841E-01
809.00	9.4847E-01
809.18	9.7505E-01
809.35	9.2443E-01
809.53	9.5803E-01
809.70	9.3968E-01
809.88	9.4350E-01
810.05	9.3610E-01
810.23	9.4792E-01
810.40	9.3034E-01
810.57	9.2557E-01
810.75	9.0134E-01
810.92	8.9428E-01
811.10	8.9636E-01
811.27	8.6702E-01
811.45	8.7691E-01
811.62	8.6332E-01
811.80	8.4555E-01
811.97	8.6237E-01
812.15	8.6061E-01
812.32	8.5818E-01
812.50	8.1029E-01
812.67	8.7389E-01
812.84	8.1061E-01
813.02	8.3156E-01
813.19	8.2253E-01
813.37	8.2017E-01
813.54	7.9030E-01
813.72	7.9651E-01
813.89	7.6836E-01
814.07	7.8378E-01
814.24	7.8619E-01
814.41	7.8689E-01
814.59	7.4876E-01
814.76	7.3977E-01
814.94	7.5998E-01
815.11	7.6724E-01
815.29	7.0190E-01
815.46	7.1012E-01
815.63	7.2236E-01
815.81	7.2236E-01
815.98	6.7508E-01
816.16	6.8196E-01
816.33	7.2320E-01
816.50	7.3756E-01
816.68	7.1907E-01
816.85	7.0092E-01
817.03	7.2425E-01
817.20	7.1124E-01
817.37	7.3003E-01
817.55	7.0988E-01
817.72	7.2651E-01
817.90	6.9622E-01
818.07	7.2534E-01
818.24	6.9089E-01
818.42	7.0905E-01
818.59	7.0925E-01
818.77	7.1233E-01
818.94	7.4303E-01
819.11	7.0641E-01
819.29	7.5094E-01
819.46	7.4685E-01
819.64	7.0400E-01
819.81	7.6742E-01
819.98	7.5746E-01
820.16	7.2330E-01
820.33	7.4870E-01
820.50	7.4358E-01
820.68	7.1825E-01
820.85	7.4106E-01
821.02	7.2858E-01
821.20	7.0621E-01
821.37	7.3000E-01
821.55	6.8866E-01
821.72	7.1606E-01
821.89	7.2325E-01
822.07	7.4620E-01
822.24	7.4333E-01
822.41	6.8947E-01
822.59	7.5818E-01
822.76	7.5596E-01
822.93	7.1364E-01
823.11	7.2356E-01
823.28	7.3900E-01
823.45	7.1669E-01
823.63	7.2011E-01
823.80	7.4365E-01
823.97	6.8058E-01
824.15	7.4806E-01
824.32	7.2010E-01
824.49	7.6988E-01
824.67	7.2619E-01
824.84	7.4453E-01
825.01	7.4397E-01
825.19	7.4567E-01
825.36	7.4298E-01
825.53	7.6960E-01
825.71	7.5601E-01
825.88	7.6228E-01
826.05	7.2279E-01
826.23	7.5566E-01
826.40	7.3449E-01
826.57	7.3739E-01
826.75	7.2672E-01
826.92	7.0950E-01
827.09	7.1136E-01
827.26	7.7345E-01
827.44	7.4520E-01
827.61	7.7538E-01
827.78	7.5501E-01
827.96	7.0510E-01
828.13	7.7259E-01
828.30	7.5078E-01
828.48	7.3622E-01
828.65	7.3086E-01
828.82	7.3571E-01
828.99	7.3497E-01
829.17	7.3862E-01
829.34	6.8506E-01
829.51	7.2826E-01
829.68	7.6572E-01
829.86	7.5217E-01
830.03	7.3088E-01
830.20	7.4489E-01
830.38	7.3300E-01
830.55	7.0281E-01
830.72	7.3678E-01
830.89	6.9729E-01
831.07	6.9626E-01
831.24	6.9561E-01
831.41	7.0957E-01
831.58	7.3841E-01
831.76	7.6460E-01
831.93	7.4324E-01
832.10	7.4226E-01
832.27	6.9445E-01
832.45	6.9186E-01
832.62	7.3503E-01
832.79	7.1087E-01
832.96	7.4206E-01
833.14	6.9598E-01
833.31	7.6077E-01
833.48	7.3525E-01
833.65	7.1322E-01
833.83	7.6728E-01
834.00	7.7941E-01
834.17	7.4433E-01
834.34	7.6492E-01
834.51	7.4531E-01
834.69	7.3321E-01
834.86	7.8021E-01
835.03	7.4940E-01
835.20	7.7933E-01
835.38	7.5721E-01
835.55	7.6577E-01
835.72	7.5185E-01
835.89	8.2055E-01
836.06	7.5727E-01
836.24	7.5504E-01
836.41	7.3903E-01
836.58	7.9444E-01
836.75	7.8877E-01
836.92	7.7763E-01
837.10	7.5209E-01
837.27	7.7172E-01
837.44	7.4888E-01
837.61	8.0160E-01
837.78	7.5551E-01
837.96	7.7977E-01
838.13	7.6717E-01
838.30	7.9252E-01
838.47	7.7480E-01
838.64	7.6263E-01
838.82	7.5745E-01
838.99	8.0541E-01
839.16	7.5117E-01
839.33	7.5724E-01
839.50	7.9982E-01
839.67	7.7453E-01
839.85	7.2291E-01
840.02	7.6472E-01
840.19	7.4186E-01
840.36	7.8928E-01
840.53	7.3313E-01
840.70	7.2609E-01
840.88	7.8011E-01
841.05	7.9466E-01
841.22	7.6609E-01
841.39	7.6516E-01
841.56	7.7240E-01
841.73	7.5830E-01
841.91	7.8405E-01
842.08	7.8273E-01
842.25	7.7404E-01
842.42	7.8361E-01
842.59	7.7185E-01
842.76	8.1679E-01
842.93	7.7346E-01
843.11	7.8547E-01
843.28	7.6983E-01
843.45	7.7477E-01
843.62	7.3954E-01
843.79	7.5054E-01
843.96	8.0088E-01
844.13	7.7285E-01
844.30	7.7078E-01
844.48	7.9955E-01
844.65	7.4114E-01
844.82	7.1949E-01
844.99	7.5505E-01
845.16	7.5274E-01
845.33	7.6178E-01
845.50	7.5781E-01
845.67	7.2360E-01
845.84	7.5963E-01
846.02	7.4002E-01
846.19	7.5902E-01
846.36	7.6357E-01
846.53	8.0264E-01
846.70	7.6970E-01
846.87	7.1683E-01
847.04	7.7501E-01
847.21	7.7183E-01
847.38	7.7066E-01
847.55	7.7129E-01
847.73	7.3651E-01
847.90	7.5135E-01
848.07	7.1935E-01
848.24	7.3195E-01
848.41	7.1974E-01
848.58	8.1610E-01
848.75	7.3973E-01
848.92	7.9234E-01
849.09	7.4882E-01
849.26	7.2991E-01
849.43	7.1288E-01
849.60	7.3577E-01
849.77	7.6397E-01
849.94	6.4563E-01
850.12	7.6707E-01
850.29	7.4160E-01
850.46	7.2889E-01
850.63	7.1184E-01
850.80	7.3860E-01
850.97	7.3642E-01
851.14	6.9019E-01
851.31	6.5776E-01
851.48	6.9719E-01
851.65	7.1254E-01
851.82	7.4370E-01
851.99	7.2667E-01
852.16	6.5044E-01
852.33	7.1004E-01
852.50	6.8698E-01
852.67	6.9349E-01
852.84	7.0679E-01
853.01	6.8229E-01
853.18	7.0557E-01
853.35	6.6044E-01
853.52	7.3500E-01
853.69	6.7982E-01
853.86	6.4328E-01
854.03	6.3511E-01
854.21	6.8782E-01
854.38	6.7253E-01
854.55	6.9627E-01
854.72	7.0421E-01
854.89	6.4212E-01
855.06	6.0467E-01
855.23	6.6482E-01
855.40	7.0777E-01
855.57	6.3468E-01
855.74	6.5469E-01
855.91	6.6676E-01
856.08	6.3560E-01
856.25	6.7277E-01
856.42	6.6551E-01
856.59	6.6157E-01
856.76	6.7831E-01
856.93	6.7069E-01
857.10	6.6571E-01
857.27	7.1980E-01
857.44	6.8455E-01
857.61	6.8272E-01
857.77	6.4640E-01
857.94	6.4982E-01
858.11	6.3877E-01
858.28	7.0864E-01
858.45	6.4251E-01
858.62	6.8380E-01
858.79	6.6088E-01
858.96	6.6273E-01
859.13	6.6763E-01
859.30	6.9586E-01
859.47	6.5406E-01
859.64	6.0962E-01
859.81	6.9338E-01
859.98	6.9147E-01
860.15	6.6071E-01
860.32	6.4057E-01
860.49	7.4057E-01
860.66	6.7961E-01
860.83	6.9157E-01
861.00	6.7908E-01
861.17	6.8720E-01
861.34	6.9184E-01
861.51	6.1015E-01
861.68	6.9422E-01
861.84	6.7333E-01
862.01	6.3966E-01
862.18	6.5358E-01
862.35	6.7774E-01
862.52	6.7518E-01
862.69	6.5248E-01
862.86	6.7077E-01
863.03	6.8596E-01
863.20	6.6456E-01
863.37	6.7057E-01
863.54	6.2583E-01
863.71	6.3147E-01
863.88	6.5249E-01
864.05	6.4237E-01
864.21	6.7354E-01
864.38	6.1647E-01
864.55	6.0090E-01
864.72	6.8543E-01
864.89	6.4231E-01
865.06	6.7808E-01
865.23	6.3203E-01
865.40	6.0616E-01
865.57	6.7892E-01
865.74	6.4406E-01
865.90	6.5556E-01
866.07	6.5331E-01
866.24	5.9698E-01
866.41	5.8249E-01
866.58	6.0309E-01
866.75	6.1319E-01
866.92	6.1755E-01
867.09	6.1958E-01
867.26	6.2175E-01
867.42	5.8168E-01
867.59	5.5565E-01
867.76	6.2726E-01
867.93	5.9258E-01
868.10	6.1094E-01
868.27	5.4024E-01
868.44	6.0999E-01
868.60	6.2626E-01
868.77	6.1721E-01
868.94	5.9656E-01
869.11	5.9343E-01
869.28	6.3330E-01
869.45	5.4819E-01
869.62	6.1661E-01
869.78	5.9520E-01
869.95	5.5994E-01
870.12	5.8554E-01
870.29	6.1114E-01
870.46	6.2330E-01
870.63	5.8321E-01
870.80	5.4725E-01
870.96	5.8250E-01
871.13	5.7378E-01
871.30	6.1493E-01
871.47	6.2040E-01
871.64	6.1268E-01
871.81	5.1406E-01
871.97	6.3699E-01
872.14	5.4634E-01
872.31	5.3174E-01
872.48	5.6675E-01
872.65	6.1340E-01
872.81	5.7223E-01
872.98	6.2567E-01
873.15	6.0499E-01
873.32	6.0422E-01
873.49	5.7411E-01
873.66	5.9798E-01
873.82	5.7291E-01
873.99	5.4605E-01
874.16	5.8381E-01
874.33	5.5484E-01
874.50	5.9152E-01
874.66	5.6444E-01
874.83	5.7327E-01
875.00	5.6349E-01
875.17	5.0257E-01
875.34	5.9300E-01
875.50	5.4988E-01
875.67	5.3638E-01
875.84	5.5085E-01
876.01	5.3147E-01
876.17	5.0835E-01
876.34	5.0960E-01
876.51	5.8981E-01
876.68	5.6794E-01
876.85	5.5330E-01
877.01	5.7179E-01
877.18	5.2782E-01
877.35	5.4500E-01
877.52	5.4086E-01
877.68	5.6603E-01
877.85	5.3253E-01
878.02	5.5306E-01
878.19	5.3183E-01
878.35	5.4989E-01
878.52	5.4285E-01
878.69	5.5497E-01
878.86	5.0857E-01
879.02	5.3369E-01
879.19	4.9591E-01
879.36	5.2044E-01
879.53	4.6884E-01
879.69	5.2084E-01
879.86	5.7488E-01
880.03	5.6563E-01
880.20	5.1691E-01
880.36	5.7270E-01
880.53	5.0500E-01
880.70	5.7560E-01
880.87	5.2526E-01
881.03	5.2742E-01
881.20	4.7043E-01
881.37	5.1923E-01
881.54	5.3321E-01
881.70	5.6707E-01
881.87	5.0901E-01
882.04	5.1062E-01
882.20	5.1363E-01
882.37	4.6563E-01
882.54	5.3011E-01
882.71	5.2518E-01
882.87	5.6061E-01
883.04	5.0305E-01
883.21	5.0185E-01
883.37	4.8458E-01
883.54	5.0441E-01
883.71	4.9073E-01
883.87	4.6762E-01
884.04	5.4249E-01
884.21	4.9135E-01
884.38	4.7146E-01
884.54	5.4637E-01
884.71	5.4594E-01
884.88	4.8538E-01
885.04	5.0752E-01
885.21	4.7743E-01
885.38	4.7600E-01
885.54	5.6247E-01
885.71	4.8000E-01
885.88	5.0970E-01
886.04	4.9587E-01
886.21	4.9445E-01
886.38	4.7324E-01
886.54	4.8692E-01
886.71	4.5497E-01
886.88	5.2846E-01
887.04	4.3615E-01
887.21	4.6634E-01
887.38	5.0680E-01
887.54	4.7400E-01
887.71	4.5400E-01
887.88	4.3366E-01
888.04	5.4924E-01
888.21	5.7730E-01
888.38	4.5877E-01
888.54	4.6504E-01
888.71	5.1116E-01
888.87	3.3857E-01
889.04	3.3857E-01
>>>>>End Processed Spectral Data<<<<<
