SpectraSuite Data File
++++++++++++++++++++++++++++++++++++
Date: Wed Jul 25 11:03:53 HST 2007
User: guest
Dark Spectrum Present: Yes
Reference Spectrum Present: No
Number of Sampled Component Spectra: 1
Spectrometers: USB4E01242
Integration Time (usec): 20000 (USB4E01242)
Spectra Averaged: 1 (USB4E01242)
Boxcar Smoothing: 10 (USB4E01242)
Correct for Electrical Dark: No (USB4E01242)
Strobe/Lamp Enabled: No (USB4E01242)
Correct for Detector Non-linearity: No (USB4E01242)
Correct for Stray Light: No (USB4E01242)
Number of Pixels in Processed Spectrum: 3648
>>>>>Begin Processed Spectral Data<<<<<
177.33	0.0000E00
177.55	0.0000E00
177.77	0.0000E00
177.99	0.0000E00
178.21	0.0000E00
178.43	-0.0000E00
178.64	-0.0000E00
178.86	-0.0000E00
179.08	-0.0000E00
179.30	-0.0000E00
179.52	-0.0000E00
179.74	-0.0000E00
179.96	-0.0000E00
180.18	-0.0000E00
180.39	-0.0000E00
180.61	-0.0000E00
180.83	-0.0000E00
181.05	-0.0000E00
181.27	-0.0000E00
181.49	-0.0000E00
181.71	-0.0000E00
181.92	-0.0000E00
182.14	-0.0000E00
182.36	-0.0000E00
182.58	-0.0000E00
182.80	-0.0000E00
183.02	0.0000E00
183.23	-0.0000E00
183.45	-0.0000E00
183.67	-0.0000E00
183.89	-0.0000E00
184.11	0.0000E00
184.33	-0.0000E00
184.55	-0.0000E00
184.76	-0.0000E00
184.98	-0.0000E00
185.20	-0.0000E00
185.42	-0.0000E00
185.64	-0.0000E00
185.86	0.0000E00
186.07	-0.0000E00
186.29	-0.0000E00
186.51	-0.0000E00
186.73	-0.0000E00
186.95	-0.0000E00
187.17	-0.0000E00
187.38	-0.0000E00
187.60	-0.0000E00
187.82	-0.0000E00
188.04	-0.0000E00
188.26	-0.0000E00
188.47	-0.0000E00
188.69	-0.0000E00
188.91	-0.0000E00
189.13	-0.0000E00
189.35	-0.0000E00
189.57	-0.0000E00
189.78	0.0000E00
190.00	-0.0000E00
190.22	-0.0000E00
190.44	-0.0000E00
190.66	-0.0000E00
190.87	-0.0000E00
191.09	-0.0000E00
191.31	-0.0000E00
191.53	-0.0000E00
191.75	-0.0000E00
191.97	-0.0000E00
192.18	-0.0000E00
192.40	0.0000E00
192.62	-0.0000E00
192.84	-0.0000E00
193.06	-0.0000E00
193.27	-0.0000E00
193.49	-0.0000E00
193.71	-0.0000E00
193.93	-0.0000E00
194.15	-0.0000E00
194.36	-0.0000E00
194.58	-0.0000E00
194.80	-0.0000E00
195.02	-0.0000E00
195.23	-0.0000E00
195.45	-0.0000E00
195.67	-0.0000E00
195.89	-0.0000E00
196.11	-0.0000E00
196.32	-0.0000E00
196.54	-0.0000E00
196.76	-0.0000E00
196.98	-0.0000E00
197.20	-0.0000E00
197.41	-0.0000E00
197.63	-0.0000E00
197.85	-0.0000E00
198.07	-0.0000E00
198.28	-0.0000E00
198.50	-0.0000E00
198.72	-0.0000E00
198.94	-0.0000E00
199.16	-0.0000E00
199.37	-0.0000E00
199.59	-0.0000E00
199.81	-0.0000E00
200.03	-0.0000E00
200.24	-0.0000E00
200.46	-0.0000E00
200.68	-0.0000E00
200.90	-0.0000E00
201.11	-0.0000E00
201.33	-0.0000E00
201.55	-0.0000E00
201.77	-0.0000E00
201.98	-0.0000E00
202.20	-0.0000E00
202.42	-0.0000E00
202.64	-0.0000E00
202.86	-0.0000E00
203.07	-0.0000E00
203.29	-0.0000E00
203.51	-0.0000E00
203.73	-0.0000E00
203.94	-0.0000E00
204.16	-0.0000E00
204.38	0.0000E00
204.60	-0.0000E00
204.81	-0.0000E00
205.03	-0.0000E00
205.25	-0.0000E00
205.46	0.0000E00
205.68	-0.0000E00
205.90	-0.0000E00
206.12	-0.0000E00
206.33	-0.0000E00
206.55	0.0000E00
206.77	-0.0000E00
206.99	-0.0000E00
207.20	-0.0000E00
207.42	-0.0000E00
207.64	-0.0000E00
207.86	-0.0000E00
208.07	-0.0000E00
208.29	-0.0000E00
208.51	-0.0000E00
208.72	-0.0000E00
208.94	0.0000E00
209.16	0.0000E00
209.38	-0.0000E00
209.59	0.0000E00
209.81	-0.0000E00
210.03	-0.0000E00
210.25	-0.0000E00
210.46	-0.0000E00
210.68	-0.0000E00
210.90	-0.0000E00
211.11	-0.0000E00
211.33	-0.0000E00
211.55	-0.0000E00
211.77	-0.0000E00
211.98	0.0000E00
212.20	-0.0000E00
212.42	-0.0000E00
212.63	-0.0000E00
212.85	-0.0000E00
213.07	-0.0000E00
213.29	0.0000E00
213.50	-0.0000E00
213.72	-0.0000E00
213.94	-0.0000E00
214.15	-0.0000E00
214.37	-0.0000E00
214.59	-0.0000E00
214.80	-0.0000E00
215.02	-0.0000E00
215.24	-0.0000E00
215.45	-0.0000E00
215.67	-0.0000E00
215.89	-0.0000E00
216.11	-0.0000E00
216.32	-0.0000E00
216.54	-0.0000E00
216.76	-0.0000E00
216.97	-0.0000E00
217.19	-0.0000E00
217.41	-0.0000E00
217.62	-0.0000E00
217.84	-0.0000E00
218.06	-0.0000E00
218.27	-0.0000E00
218.49	0.0000E00
218.71	-0.0000E00
218.92	-0.0000E00
219.14	-0.0000E00
219.36	-0.0000E00
219.57	-0.0000E00
219.79	-0.0000E00
220.01	-0.0000E00
220.22	-0.0000E00
220.44	-0.0000E00
220.66	-0.0000E00
220.88	-0.0000E00
221.09	0.0000E00
221.31	-0.0000E00
221.53	-0.0000E00
221.74	-0.0000E00
221.96	-0.0000E00
222.17	-0.0000E00
222.39	-0.0000E00
222.61	-0.0000E00
222.82	0.0000E00
223.04	0.0000E00
223.26	-0.0000E00
223.47	-0.0000E00
223.69	-0.0000E00
223.91	-0.0000E00
224.12	0.0000E00
224.34	-0.0000E00
224.56	-0.0000E00
224.77	-0.0000E00
224.99	-0.0000E00
225.21	-0.0000E00
225.42	-0.0000E00
225.64	0.0000E00
225.86	-0.0000E00
226.07	-0.0000E00
226.29	-0.0000E00
226.50	0.0000E00
226.72	-0.0000E00
226.94	-0.0000E00
227.15	-0.0000E00
227.37	0.0000E00
227.59	-0.0000E00
227.80	-0.0000E00
228.02	-0.0000E00
228.24	-0.0000E00
228.45	-0.0000E00
228.67	-0.0000E00
228.88	0.0000E00
229.10	-0.0000E00
229.32	-0.0000E00
229.53	0.0000E00
229.75	-0.0000E00
229.97	-0.0000E00
230.18	-0.0000E00
230.40	-0.0000E00
230.61	-0.0000E00
230.83	-0.0000E00
231.05	-0.0000E00
231.26	0.0000E00
231.48	-0.0000E00
231.70	-0.0000E00
231.91	-0.0000E00
232.13	-0.0000E00
232.34	-0.0000E00
232.56	0.0000E00
232.78	-0.0000E00
232.99	0.0000E00
233.21	-0.0000E00
233.42	-0.0000E00
233.64	-0.0000E00
233.86	-0.0000E00
234.07	-0.0000E00
234.29	0.0000E00
234.50	-0.0000E00
234.72	-0.0000E00
234.94	-0.0000E00
235.15	-0.0000E00
235.37	-0.0000E00
235.58	-0.0000E00
235.80	-0.0000E00
236.02	0.0000E00
236.23	-0.0000E00
236.45	-0.0000E00
236.66	-0.0000E00
236.88	-0.0000E00
237.10	0.0000E00
237.31	-0.0000E00
237.53	-0.0000E00
237.74	-0.0000E00
237.96	-0.0000E00
238.17	-0.0000E00
238.39	-0.0000E00
238.61	-0.0000E00
238.82	-0.0000E00
239.04	-0.0000E00
239.25	-0.0000E00
239.47	-0.0000E00
239.69	-0.0000E00
239.90	-0.0000E00
240.12	0.0000E00
240.33	0.0000E00
240.55	-0.0000E00
240.76	0.0000E00
240.98	-0.0000E00
241.20	-0.0000E00
241.41	-0.0000E00
241.63	-0.0000E00
241.84	-0.0000E00
242.06	-0.0000E00
242.27	-0.0000E00
242.49	-0.0000E00
242.70	-0.0000E00
242.92	0.0000E00
243.14	0.0000E00
243.35	-0.0000E00
243.57	0.0000E00
243.78	-0.0000E00
244.00	0.0000E00
244.21	-0.0000E00
244.43	0.0000E00
244.64	-0.0000E00
244.86	-0.0000E00
245.08	-0.0000E00
245.29	-0.0000E00
245.51	-0.0000E00
245.72	-0.0000E00
245.94	-0.0000E00
246.15	-0.0000E00
246.37	-0.0000E00
246.58	-0.0000E00
246.80	-0.0000E00
247.01	-0.0000E00
247.23	-0.0000E00
247.45	-0.0000E00
247.66	-0.0000E00
247.88	-0.0000E00
248.09	-0.0000E00
248.31	-0.0000E00
248.52	-0.0000E00
248.74	-0.0000E00
248.95	0.0000E00
249.17	-0.0000E00
249.38	-0.0000E00
249.60	-0.0000E00
249.81	0.0000E00
250.03	-0.0000E00
250.24	-0.0000E00
250.46	0.0000E00
250.67	-0.0000E00
250.89	-0.0000E00
251.10	-0.0000E00
251.32	-0.0000E00
251.53	-0.0000E00
251.75	-0.0000E00
251.97	-0.0000E00
252.18	-0.0000E00
252.40	-0.0000E00
252.61	0.0000E00
252.83	-0.0000E00
253.04	-0.0000E00
253.26	-0.0000E00
253.47	-0.0000E00
253.69	-0.0000E00
253.90	-0.0000E00
254.12	-0.0000E00
254.33	-0.0000E00
254.55	-0.0000E00
254.76	-0.0000E00
254.98	0.0000E00
255.19	-0.0000E00
255.41	-0.0000E00
255.62	-0.0000E00
255.84	-0.0000E00
256.05	-0.0000E00
256.27	-0.0000E00
256.48	-0.0000E00
256.70	-0.0000E00
256.91	-0.0000E00
257.13	-0.0000E00
257.34	-0.0000E00
257.55	0.0000E00
257.77	-0.0000E00
257.98	-0.0000E00
258.20	-0.0000E00
258.41	0.0000E00
258.63	-0.0000E00
258.84	-0.0000E00
259.06	-0.0000E00
259.27	-0.0000E00
259.49	0.0000E00
259.70	0.0000E00
259.92	-0.0000E00
260.13	0.0000E00
260.35	-0.0000E00
260.56	-0.0000E00
260.78	-0.0000E00
260.99	-0.0000E00
261.21	-0.0000E00
261.42	-0.0000E00
261.63	-0.0000E00
261.85	-0.0000E00
262.06	-0.0000E00
262.28	-0.0000E00
262.49	-0.0000E00
262.71	-0.0000E00
262.92	-0.0000E00
263.14	-0.0000E00
263.35	-0.0000E00
263.57	-0.0000E00
263.78	0.0000E00
264.00	-0.0000E00
264.21	-0.0000E00
264.42	-0.0000E00
264.64	-0.0000E00
264.85	-0.0000E00
265.07	-0.0000E00
265.28	-0.0000E00
265.50	-0.0000E00
265.71	-0.0000E00
265.93	-0.0000E00
266.14	-0.0000E00
266.35	0.0000E00
266.57	-0.0000E00
266.78	0.0000E00
267.00	-0.0000E00
267.21	-0.0000E00
267.43	-0.0000E00
267.64	-0.0000E00
267.85	-0.0000E00
268.07	-0.0000E00
268.28	-0.0000E00
268.50	-0.0000E00
268.71	0.0000E00
268.93	-0.0000E00
269.14	0.0000E00
269.35	-0.0000E00
269.57	0.0000E00
269.78	-0.0000E00
270.00	-0.0000E00
270.21	0.0000E00
270.43	-0.0000E00
270.64	0.0000E00
270.85	-0.0000E00
271.07	-0.0000E00
271.28	-0.0000E00
271.50	-0.0000E00
271.71	-0.0000E00
271.92	-0.0000E00
272.14	-0.0000E00
272.35	-0.0000E00
272.57	-0.0000E00
272.78	-0.0000E00
272.99	0.0000E00
273.21	-0.0000E00
273.42	-0.0000E00
273.64	-0.0000E00
273.85	-0.0000E00
274.07	-0.0000E00
274.28	-0.0000E00
274.49	-0.0000E00
274.71	-0.0000E00
274.92	-0.0000E00
275.13	-0.0000E00
275.35	-0.0000E00
275.56	-0.0000E00
275.78	0.0000E00
275.99	-0.0000E00
276.20	-0.0000E00
276.42	-0.0000E00
276.63	-0.0000E00
276.85	-0.0000E00
277.06	-0.0000E00
277.27	-0.0000E00
277.49	0.0000E00
277.70	-0.0000E00
277.92	-0.0000E00
278.13	0.0000E00
278.34	0.0000E00
278.56	0.0000E00
278.77	0.0000E00
278.98	-0.0000E00
279.20	-0.0000E00
279.41	-0.0000E00
279.63	0.0000E00
279.84	-0.0000E00
280.05	-0.0000E00
280.27	-0.0000E00
280.48	0.0000E00
280.69	-0.0000E00
280.91	-0.0000E00
281.12	-0.0000E00
281.33	-0.0000E00
281.55	-0.0000E00
281.76	-0.0000E00
281.98	-0.0000E00
282.19	-0.0000E00
282.40	0.0000E00
282.62	0.0000E00
282.83	-0.0000E00
283.04	-0.0000E00
283.26	0.0000E00
283.47	-0.0000E00
283.68	-0.0000E00
283.90	-0.0000E00
284.11	-0.0000E00
284.32	-0.0000E00
284.54	-0.0000E00
284.75	-0.0000E00
284.96	-0.0000E00
285.18	-0.0000E00
285.39	-0.0000E00
285.60	-0.0000E00
285.82	-0.0000E00
286.03	-0.0000E00
286.24	-0.0000E00
286.46	0.0000E00
286.67	-0.0000E00
286.88	-0.0000E00
287.10	-0.0000E00
287.31	-0.0000E00
287.52	0.0000E00
287.74	-0.0000E00
287.95	-0.0000E00
288.16	-0.0000E00
288.38	0.0000E00
288.59	-0.0000E00
288.80	-0.0000E00
289.02	-0.0000E00
289.23	-0.0000E00
289.44	-0.0000E00
289.66	0.0000E00
289.87	-0.0000E00
290.08	0.0000E00
290.30	-0.0000E00
290.51	-0.0000E00
290.72	-0.0000E00
290.94	0.0000E00
291.15	-0.0000E00
291.36	0.0000E00
291.57	0.0000E00
291.79	-0.0000E00
292.00	-0.0000E00
292.21	-0.0000E00
292.43	-0.0000E00
292.64	-0.0000E00
292.85	-0.0000E00
293.07	-0.0000E00
293.28	0.0000E00
293.49	-0.0000E00
293.70	0.0000E00
293.92	-0.0000E00
294.13	-0.0000E00
294.34	0.0000E00
294.56	-0.0000E00
294.77	0.0000E00
294.98	-0.0000E00
295.20	-0.0000E00
295.41	-0.0000E00
295.62	-0.0000E00
295.83	-0.0000E00
296.05	0.0000E00
296.26	-0.0000E00
296.47	0.0000E00
296.69	-0.0000E00
296.90	0.0000E00
297.11	0.0000E00
297.32	-0.0000E00
297.54	0.0000E00
297.75	-0.0000E00
297.96	0.0000E00
298.17	0.0000E00
298.39	0.0000E00
298.60	0.0000E00
298.81	0.0000E00
299.03	0.0000E00
299.24	0.0000E00
299.45	0.0000E00
299.66	0.0000E00
299.88	0.0000E00
300.09	1.8833E-03
300.30	1.4971E-03
300.51	2.1217E-03
300.73	1.3378E-03
300.94	1.8041E-03
301.15	2.2052E-03
301.36	2.0596E-03
301.58	2.3476E-03
301.79	3.0530E-03
302.00	3.1260E-03
302.21	2.4537E-03
302.43	2.9288E-03
302.64	3.1811E-03
302.85	3.4727E-03
303.06	2.5812E-03
303.28	3.7187E-03
303.49	3.5218E-03
303.70	4.6303E-03
303.91	3.3151E-03
304.13	3.9401E-03
304.34	3.4246E-03
304.55	5.2870E-03
304.76	3.9468E-03
304.98	3.5371E-03
305.19	5.0622E-03
305.40	4.3911E-03
305.61	5.8608E-03
305.82	5.3658E-03
306.04	5.1282E-03
306.25	4.7199E-03
306.46	5.3088E-03
306.67	4.6784E-03
306.89	6.5112E-03
307.10	5.8839E-03
307.31	6.7844E-03
307.52	5.7550E-03
307.74	7.4218E-03
307.95	7.1479E-03
308.16	5.3337E-03
308.37	8.2848E-03
308.58	7.5963E-03
308.80	7.9944E-03
309.01	8.2935E-03
309.22	6.3043E-03
309.43	6.8707E-03
309.64	8.0446E-03
309.86	7.7329E-03
310.07	6.8556E-03
310.28	8.6071E-03
310.49	9.2165E-03
310.70	8.9494E-03
310.92	8.4696E-03
311.13	7.1632E-03
311.34	9.0101E-03
311.55	9.4820E-03
311.76	8.1163E-03
311.98	7.4001E-03
312.19	1.1205E-02
312.40	9.1630E-03
312.61	9.7563E-03
312.82	9.6107E-03
313.04	8.1554E-03
313.25	1.0230E-02
313.46	9.4207E-03
313.67	9.2819E-03
313.88	8.7339E-03
314.10	8.8741E-03
314.31	8.8852E-03
314.52	9.0930E-03
314.73	8.8024E-03
314.94	7.5579E-03
315.16	1.0689E-02
315.37	9.4225E-03
315.58	1.1924E-02
315.79	9.9466E-03
316.00	9.4779E-03
316.21	8.8034E-03
316.43	9.1811E-03
316.64	9.0848E-03
316.85	7.5111E-03
317.06	8.9046E-03
317.27	8.8418E-03
317.48	8.4929E-03
317.70	8.7055E-03
317.91	9.7028E-03
318.12	8.4215E-03
318.33	9.0294E-03
318.54	9.5655E-03
318.75	1.1698E-02
318.97	9.2750E-03
319.18	1.0330E-02
319.39	1.0686E-02
319.60	9.9332E-03
319.81	9.9412E-03
320.02	1.1074E-02
320.24	1.0851E-02
320.45	1.0052E-02
320.66	1.1201E-02
320.87	1.0423E-02
321.08	1.0260E-02
321.29	9.5992E-03
321.50	1.0030E-02
321.72	9.5460E-03
321.93	9.3896E-03
322.14	1.1692E-02
322.35	9.2065E-03
322.56	1.0791E-02
322.77	1.1731E-02
322.98	1.1916E-02
323.20	1.1189E-02
323.41	1.1950E-02
323.62	1.2077E-02
323.83	1.0769E-02
324.04	1.1263E-02
324.25	1.1039E-02
324.46	1.2247E-02
324.67	1.0794E-02
324.89	1.0930E-02
325.10	1.2239E-02
325.31	1.1750E-02
325.52	1.4326E-02
325.73	1.4430E-02
325.94	1.4506E-02
326.15	1.4361E-02
326.36	1.3842E-02
326.58	1.6857E-02
326.79	1.4823E-02
327.00	1.3568E-02
327.21	1.4007E-02
327.42	1.4576E-02
327.63	1.5443E-02
327.84	1.6696E-02
328.05	1.5484E-02
328.26	1.8793E-02
328.48	1.6010E-02
328.69	2.0510E-02
328.90	1.7439E-02
329.11	1.8037E-02
329.32	1.8142E-02
329.53	1.6361E-02
329.74	1.8123E-02
329.95	1.5888E-02
330.16	1.5753E-02
330.37	1.7843E-02
330.59	1.4785E-02
330.80	1.9144E-02
331.01	1.8668E-02
331.22	1.8924E-02
331.43	1.9440E-02
331.64	1.6642E-02
331.85	1.7163E-02
332.06	1.6921E-02
332.27	1.9326E-02
332.48	2.0562E-02
332.69	1.4401E-02
332.91	1.9265E-02
333.12	1.6919E-02
333.33	1.9445E-02
333.54	1.8169E-02
333.75	1.5034E-02
333.96	1.7356E-02
334.17	1.5013E-02
334.38	1.8508E-02
334.59	2.1513E-02
334.80	1.4459E-02
335.01	1.5336E-02
335.22	1.5748E-02
335.43	1.7412E-02
335.64	1.7714E-02
335.86	1.9844E-02
336.07	1.6113E-02
336.28	1.4492E-02
336.49	2.0266E-02
336.70	1.7050E-02
336.91	1.8652E-02
337.12	1.7318E-02
337.33	1.4788E-02
337.54	1.5948E-02
337.75	1.6460E-02
337.96	1.6667E-02
338.17	1.7170E-02
338.38	1.8802E-02
338.59	1.6406E-02
338.80	1.4978E-02
339.01	1.8256E-02
339.22	1.8309E-02
339.43	1.7874E-02
339.65	1.9367E-02
339.86	1.8383E-02
340.07	1.9260E-02
340.28	1.9322E-02
340.49	1.5718E-02
340.70	1.7730E-02
340.91	1.8649E-02
341.12	1.8554E-02
341.33	1.9002E-02
341.54	1.8020E-02
341.75	1.7623E-02
341.96	1.7698E-02
342.17	1.8517E-02
342.38	1.5777E-02
342.59	1.5782E-02
342.80	1.8917E-02
343.01	1.8927E-02
343.22	1.8553E-02
343.43	1.6993E-02
343.64	1.9094E-02
343.85	1.5580E-02
344.06	2.0504E-02
344.27	1.8839E-02
344.48	1.9645E-02
344.69	1.7489E-02
344.90	1.6731E-02
345.11	1.8801E-02
345.32	1.8167E-02
345.53	1.7500E-02
345.74	1.7775E-02
345.95	1.6891E-02
346.16	1.6896E-02
346.37	1.7523E-02
346.58	1.8305E-02
346.79	1.8409E-02
347.00	1.9393E-02
347.21	1.9669E-02
347.42	1.8490E-02
347.63	1.7433E-02
347.84	1.8599E-02
348.05	1.8922E-02
348.26	1.7908E-02
348.47	1.8927E-02
348.68	1.7766E-02
348.89	1.6953E-02
349.10	1.9712E-02
349.31	2.3419E-02
349.52	1.8947E-02
349.73	2.0096E-02
349.94	2.0282E-02
350.15	2.0059E-02
350.36	1.9457E-02
350.57	2.0242E-02
350.78	2.0864E-02
350.99	2.1067E-02
351.20	2.2144E-02
351.41	2.2673E-02
351.62	2.0528E-02
351.83	2.0303E-02
352.04	2.1324E-02
352.25	1.9869E-02
352.46	1.9826E-02
352.67	2.0826E-02
352.88	1.9392E-02
353.09	1.9804E-02
353.30	1.9177E-02
353.51	2.0595E-02
353.72	2.1373E-02
353.93	1.8979E-02
354.14	2.0526E-02
354.35	2.0182E-02
354.56	2.1079E-02
354.77	2.1257E-02
354.98	2.1725E-02
355.19	2.0819E-02
355.39	1.8681E-02
355.60	1.8817E-02
355.81	1.8737E-02
356.02	2.0812E-02
356.23	1.8488E-02
356.44	1.7129E-02
356.65	2.0673E-02
356.86	2.0076E-02
357.07	1.9540E-02
357.28	1.9692E-02
357.49	2.0207E-02
357.70	2.0460E-02
357.91	1.8767E-02
358.12	1.7809E-02
358.33	1.8913E-02
358.54	1.9807E-02
358.75	1.9432E-02
358.96	1.9151E-02
359.16	1.7573E-02
359.37	2.0427E-02
359.58	2.0200E-02
359.79	1.8647E-02
360.00	2.0167E-02
360.21	2.1500E-02
360.42	1.9019E-02
360.63	1.9846E-02
360.84	2.2750E-02
361.05	2.0195E-02
361.26	1.9252E-02
361.47	2.1735E-02
361.68	2.1201E-02
361.88	2.0271E-02
362.09	2.1106E-02
362.30	2.2871E-02
362.51	2.0215E-02
362.72	2.0951E-02
362.93	2.2355E-02
363.14	2.3303E-02
363.35	2.2821E-02
363.56	2.1647E-02
363.77	2.1703E-02
363.98	2.2965E-02
364.18	2.4527E-02
364.39	2.4047E-02
364.60	2.4871E-02
364.81	2.5673E-02
365.02	2.4212E-02
365.23	2.5430E-02
365.44	2.4695E-02
365.65	2.3694E-02
365.86	2.4745E-02
366.07	2.4306E-02
366.27	2.5827E-02
366.48	2.6179E-02
366.69	2.5515E-02
366.90	2.3757E-02
367.11	2.4421E-02
367.32	2.4140E-02
367.53	2.6122E-02
367.74	2.4107E-02
367.95	2.4133E-02
368.15	2.5902E-02
368.36	2.4409E-02
368.57	2.4180E-02
368.78	2.4097E-02
368.99	2.5337E-02
369.20	2.3651E-02
369.41	2.7420E-02
369.62	2.4959E-02
369.82	2.5552E-02
370.03	2.2844E-02
370.24	2.6015E-02
370.45	2.2942E-02
370.66	2.1906E-02
370.87	2.3132E-02
371.08	2.2220E-02
371.28	2.2405E-02
371.49	2.2360E-02
371.70	2.1612E-02
371.91	2.0639E-02
372.12	2.1070E-02
372.33	2.1998E-02
372.54	2.1022E-02
372.74	2.1692E-02
372.95	2.0151E-02
373.16	2.1496E-02
373.37	2.0399E-02
373.58	2.0767E-02
373.79	2.1151E-02
374.00	1.9316E-02
374.20	2.1057E-02
374.41	2.1420E-02
374.62	1.9820E-02
374.83	2.0677E-02
375.04	2.1888E-02
375.25	2.2278E-02
375.45	2.2494E-02
375.66	2.3041E-02
375.87	2.2230E-02
376.08	2.4421E-02
376.29	2.4694E-02
376.50	2.3910E-02
376.70	2.2277E-02
376.91	2.2988E-02
377.12	2.2823E-02
377.33	2.2504E-02
377.54	2.3208E-02
377.75	2.4713E-02
377.95	2.4038E-02
378.16	2.3062E-02
378.37	2.2352E-02
378.58	2.3153E-02
378.79	2.2931E-02
379.00	2.2897E-02
379.20	2.1904E-02
379.41	2.2623E-02
379.62	2.1718E-02
379.83	2.0983E-02
380.04	2.0408E-02
380.24	2.2020E-02
380.45	1.8492E-02
380.66	2.0083E-02
380.87	2.0223E-02
381.08	2.0054E-02
381.28	1.8906E-02
381.49	1.9072E-02
381.70	1.8794E-02
381.91	1.8701E-02
382.12	1.8749E-02
382.32	1.8038E-02
382.53	1.9125E-02
382.74	1.7839E-02
382.95	1.8427E-02
383.16	1.8626E-02
383.36	1.7660E-02
383.57	1.8365E-02
383.78	1.8745E-02
383.99	1.7862E-02
384.20	1.8470E-02
384.40	1.8731E-02
384.61	1.9923E-02
384.82	1.9872E-02
385.03	2.0819E-02
385.23	2.0233E-02
385.44	1.9462E-02
385.65	2.0891E-02
385.86	2.0391E-02
386.07	2.2239E-02
386.27	2.0281E-02
386.48	2.0434E-02
386.69	2.1469E-02
386.90	2.1049E-02
387.10	2.0470E-02
387.31	2.2360E-02
387.52	2.1345E-02
387.73	2.2560E-02
387.94	2.2976E-02
388.14	2.2583E-02
388.35	2.3427E-02
388.56	2.4405E-02
388.77	2.3566E-02
388.97	2.4431E-02
389.18	2.3670E-02
389.39	2.4004E-02
389.60	2.4607E-02
389.80	2.4703E-02
390.01	2.4534E-02
390.22	2.3922E-02
390.43	2.3320E-02
390.63	2.3561E-02
390.84	2.3678E-02
391.05	2.3683E-02
391.26	2.3304E-02
391.46	2.2582E-02
391.67	2.2338E-02
391.88	2.1115E-02
392.09	2.1358E-02
392.29	2.2524E-02
392.50	2.1252E-02
392.71	2.1658E-02
392.92	2.1739E-02
393.12	2.1585E-02
393.33	2.1869E-02
393.54	2.0910E-02
393.74	1.9986E-02
393.95	2.0344E-02
394.16	2.1984E-02
394.37	2.1484E-02
394.57	2.1089E-02
394.78	2.1743E-02
394.99	2.2630E-02
395.19	2.1590E-02
395.40	2.1821E-02
395.61	2.2170E-02
395.82	2.3686E-02
396.02	2.3194E-02
396.23	2.4568E-02
396.44	2.5649E-02
396.65	2.3348E-02
396.85	2.6190E-02
397.06	2.6445E-02
397.27	2.6059E-02
397.47	2.7130E-02
397.68	2.7869E-02
397.89	2.7476E-02
398.09	2.8410E-02
398.30	2.8103E-02
398.51	2.9126E-02
398.72	2.9574E-02
398.92	3.1087E-02
399.13	3.0869E-02
399.34	3.3298E-02
399.54	3.3578E-02
399.75	3.4023E-02
399.96	3.2263E-02
400.16	3.3651E-02
400.37	3.3688E-02
400.58	3.3971E-02
400.78	3.4851E-02
400.99	3.2179E-02
401.20	3.5163E-02
401.41	3.5508E-02
401.61	3.4186E-02
401.82	3.4866E-02
402.03	3.4510E-02
402.23	3.4649E-02
402.44	3.4652E-02
402.65	3.4047E-02
402.85	3.4382E-02
403.06	3.3852E-02
403.27	3.2895E-02
403.47	3.4285E-02
403.68	3.3468E-02
403.89	3.4369E-02
404.09	3.4206E-02
404.30	3.2990E-02
404.51	3.3245E-02
404.71	3.3803E-02
404.92	3.3324E-02
405.13	3.3146E-02
405.33	3.3154E-02
405.54	3.2533E-02
405.75	3.3780E-02
405.95	3.3946E-02
406.16	3.2205E-02
406.37	3.3685E-02
406.57	3.3104E-02
406.78	3.4420E-02
406.99	3.4162E-02
407.19	3.4864E-02
407.40	3.3705E-02
407.60	3.3998E-02
407.81	3.4293E-02
408.02	3.3698E-02
408.22	3.3230E-02
408.43	3.4720E-02
408.64	3.3890E-02
408.84	3.4227E-02
409.05	3.2403E-02
409.26	3.5367E-02
409.46	3.3642E-02
409.67	3.5048E-02
409.87	3.5572E-02
410.08	3.4243E-02
410.29	3.5315E-02
410.49	3.5243E-02
410.70	3.5494E-02
410.91	3.5064E-02
411.11	3.5767E-02
411.32	3.4914E-02
411.52	3.4378E-02
411.73	3.5629E-02
411.94	3.5135E-02
412.14	3.6270E-02
412.35	3.5228E-02
412.56	3.5973E-02
412.76	3.6336E-02
412.97	3.4669E-02
413.17	3.6272E-02
413.38	3.6589E-02
413.59	3.6080E-02
413.79	3.5756E-02
414.00	3.6380E-02
414.20	3.6869E-02
414.41	3.5032E-02
414.62	3.6949E-02
414.82	3.5630E-02
415.03	3.4678E-02
415.23	3.6135E-02
415.44	3.5782E-02
415.65	3.6094E-02
415.85	3.5507E-02
416.06	3.6550E-02
416.26	3.6433E-02
416.47	3.5781E-02
416.68	3.6485E-02
416.88	3.7085E-02
417.09	3.5257E-02
417.29	3.5944E-02
417.50	3.6320E-02
417.71	3.6266E-02
417.91	3.6139E-02
418.12	3.6746E-02
418.32	3.6433E-02
418.53	3.6915E-02
418.73	3.4707E-02
418.94	3.5589E-02
419.15	3.5572E-02
419.35	3.4933E-02
419.56	3.5528E-02
419.76	3.3981E-02
419.97	3.6466E-02
420.17	3.4132E-02
420.38	3.4366E-02
420.59	3.5222E-02
420.79	3.6525E-02
421.00	3.3990E-02
421.20	3.4365E-02
421.41	3.4963E-02
421.61	3.4977E-02
421.82	3.5775E-02
422.02	3.5332E-02
422.23	3.3708E-02
422.44	3.5814E-02
422.64	3.4317E-02
422.85	3.4878E-02
423.05	3.5188E-02
423.26	3.4569E-02
423.46	3.4665E-02
423.67	3.3484E-02
423.87	3.4486E-02
424.08	3.4449E-02
424.29	3.4796E-02
424.49	3.5386E-02
424.70	3.3414E-02
424.90	3.4760E-02
425.11	3.5014E-02
425.31	3.4970E-02
425.52	3.4390E-02
425.72	3.3593E-02
425.93	3.3633E-02
426.13	3.3568E-02
426.34	3.2599E-02
426.54	3.3704E-02
426.75	3.2599E-02
426.95	3.2906E-02
427.16	3.2965E-02
427.36	3.2114E-02
427.57	3.0676E-02
427.78	3.1652E-02
427.98	3.1313E-02
428.19	3.1926E-02
428.39	3.1223E-02
428.60	3.0880E-02
428.80	3.0461E-02
429.01	3.2100E-02
429.21	2.9591E-02
429.42	3.1103E-02
429.62	3.1150E-02
429.83	3.0620E-02
430.03	2.9722E-02
430.24	3.0868E-02
430.44	2.9881E-02
430.65	3.1139E-02
430.85	3.1743E-02
431.06	3.1755E-02
431.26	3.1522E-02
431.47	3.0902E-02
431.67	3.3262E-02
431.88	3.2217E-02
432.08	3.2700E-02
432.29	3.3547E-02
432.49	3.3188E-02
432.70	3.3517E-02
432.90	3.4437E-02
433.11	3.3933E-02
433.31	3.3108E-02
433.52	3.5088E-02
433.72	3.4615E-02
433.93	3.4653E-02
434.13	3.4988E-02
434.34	3.5792E-02
434.54	3.4490E-02
434.74	3.5411E-02
434.95	3.5148E-02
435.15	3.5757E-02
435.36	3.5378E-02
435.56	3.4692E-02
435.77	3.5171E-02
435.97	3.5419E-02
436.18	3.6449E-02
436.38	3.6193E-02
436.59	3.4611E-02
436.79	3.5677E-02
437.00	3.6262E-02
437.20	3.4820E-02
437.41	3.4113E-02
437.61	3.6399E-02
437.81	3.5301E-02
438.02	3.4850E-02
438.22	3.5116E-02
438.43	3.5388E-02
438.63	3.6209E-02
438.84	3.6076E-02
439.04	3.5572E-02
439.25	3.5942E-02
439.45	3.5438E-02
439.66	3.5535E-02
439.86	3.6056E-02
440.06	3.7114E-02
440.27	3.5776E-02
440.47	3.5798E-02
440.68	3.6645E-02
440.88	3.7227E-02
441.09	3.7184E-02
441.29	3.8225E-02
441.49	3.7348E-02
441.70	3.8637E-02
441.90	3.6620E-02
442.11	3.8301E-02
442.31	3.8438E-02
442.52	3.8893E-02
442.72	3.6238E-02
442.92	3.7872E-02
443.13	3.7997E-02
443.33	3.8454E-02
443.54	3.7759E-02
443.74	3.8656E-02
443.95	3.8275E-02
444.15	3.7893E-02
444.35	3.8751E-02
444.56	3.7746E-02
444.76	3.7770E-02
444.97	4.0258E-02
445.17	3.9042E-02
445.37	3.9538E-02
445.58	3.6991E-02
445.78	3.8233E-02
445.99	3.7973E-02
446.19	3.8208E-02
446.39	3.8116E-02
446.60	3.8079E-02
446.80	3.8779E-02
447.01	3.8729E-02
447.21	3.9793E-02
447.41	3.8248E-02
447.62	3.9905E-02
447.82	3.8933E-02
448.03	4.0203E-02
448.23	3.9894E-02
448.43	3.9625E-02
448.64	4.0563E-02
448.84	3.9780E-02
449.05	3.8755E-02
449.25	4.0065E-02
449.45	3.9635E-02
449.66	4.0144E-02
449.86	3.9368E-02
450.07	3.9046E-02
450.27	4.0457E-02
450.47	3.8996E-02
450.68	4.0204E-02
450.88	3.8872E-02
451.08	3.9559E-02
451.29	3.8394E-02
451.49	4.0239E-02
451.70	3.9607E-02
451.90	4.0473E-02
452.10	3.9587E-02
452.31	3.8205E-02
452.51	3.8764E-02
452.71	3.8343E-02
452.92	3.9400E-02
453.12	3.9637E-02
453.32	3.9857E-02
453.53	3.9100E-02
453.73	3.8688E-02
453.93	3.8432E-02
454.14	3.9326E-02
454.34	3.9909E-02
454.55	3.9623E-02
454.75	4.0045E-02
454.95	3.7708E-02
455.16	4.1040E-02
455.36	3.8152E-02
455.56	4.0286E-02
455.77	4.0235E-02
455.97	4.0521E-02
456.17	3.8919E-02
456.38	4.0444E-02
456.58	4.0642E-02
456.78	3.9875E-02
456.99	3.8139E-02
457.19	4.0147E-02
457.39	3.9420E-02
457.60	3.9789E-02
457.80	3.9587E-02
458.00	3.9325E-02
458.21	4.0639E-02
458.41	4.0311E-02
458.61	3.9299E-02
458.82	3.9201E-02
459.02	3.8860E-02
459.22	4.0461E-02
459.43	4.0606E-02
459.63	4.0494E-02
459.83	3.8409E-02
460.03	4.0303E-02
460.24	3.9849E-02
460.44	3.8884E-02
460.64	3.9461E-02
460.85	4.1024E-02
461.05	3.9403E-02
461.25	3.9877E-02
461.46	3.9186E-02
461.66	3.8703E-02
461.86	3.9779E-02
462.07	4.0392E-02
462.27	3.9592E-02
462.47	4.0345E-02
462.67	3.9236E-02
462.88	4.0602E-02
463.08	3.8458E-02
463.28	3.9509E-02
463.49	3.9262E-02
463.69	3.9969E-02
463.89	3.8632E-02
464.09	3.9043E-02
464.30	3.9124E-02
464.50	4.0047E-02
464.70	3.8968E-02
464.91	3.8584E-02
465.11	3.8528E-02
465.31	3.7758E-02
465.51	3.8150E-02
465.72	3.9265E-02
465.92	3.8415E-02
466.12	3.7383E-02
466.33	3.8029E-02
466.53	3.8762E-02
466.73	3.9310E-02
466.93	3.8734E-02
467.14	3.7395E-02
467.34	4.0040E-02
467.54	3.9044E-02
467.74	3.7939E-02
467.95	3.7957E-02
468.15	3.7745E-02
468.35	3.8830E-02
468.55	3.9355E-02
468.76	3.8307E-02
468.96	3.8531E-02
469.16	3.7443E-02
469.37	3.7635E-02
469.57	3.9491E-02
469.77	3.8951E-02
469.97	3.8479E-02
470.18	3.9628E-02
470.38	3.8891E-02
470.58	3.8436E-02
470.78	3.9103E-02
470.99	4.0379E-02
471.19	3.8539E-02
471.39	3.9041E-02
471.59	3.7550E-02
471.79	3.8538E-02
472.00	3.8779E-02
472.20	3.8778E-02
472.40	3.7383E-02
472.60	3.9628E-02
472.81	4.0407E-02
473.01	4.0220E-02
473.21	3.8854E-02
473.41	3.7900E-02
473.62	3.8599E-02
473.82	3.9451E-02
474.02	3.9837E-02
474.22	3.9666E-02
474.42	3.9801E-02
474.63	3.9567E-02
474.83	3.9951E-02
475.03	3.9144E-02
475.23	3.9804E-02
475.44	4.0858E-02
475.64	3.8281E-02
475.84	3.9266E-02
476.04	3.8768E-02
476.24	4.0334E-02
476.45	4.0016E-02
476.65	3.8736E-02
476.85	3.8918E-02
477.05	3.9568E-02
477.25	4.0162E-02
477.46	3.9823E-02
477.66	3.9768E-02
477.86	4.0302E-02
478.06	3.7882E-02
478.26	3.9418E-02
478.47	3.9339E-02
478.67	4.2560E-02
478.87	3.9390E-02
479.07	3.9277E-02
479.27	4.0663E-02
479.47	4.0428E-02
479.68	4.0625E-02
479.88	4.0556E-02
480.08	4.0001E-02
480.28	4.0349E-02
480.48	3.9473E-02
480.69	4.1167E-02
480.89	3.8803E-02
481.09	4.0047E-02
481.29	4.0602E-02
481.49	3.8957E-02
481.69	3.9956E-02
481.90	4.0314E-02
482.10	3.9401E-02
482.30	3.8140E-02
482.50	3.8855E-02
482.70	3.8467E-02
482.90	3.8182E-02
483.11	3.8547E-02
483.31	3.8080E-02
483.51	3.7277E-02
483.71	3.7210E-02
483.91	3.6997E-02
484.11	3.7606E-02
484.32	3.6789E-02
484.52	3.7204E-02
484.72	3.6693E-02
484.92	3.5886E-02
485.12	3.5565E-02
485.32	3.5668E-02
485.52	3.4889E-02
485.73	3.5198E-02
485.93	3.5500E-02
486.13	3.5212E-02
486.33	3.5651E-02
486.53	3.6159E-02
486.73	3.6621E-02
486.93	3.5487E-02
487.14	3.6709E-02
487.34	3.6250E-02
487.54	3.6699E-02
487.74	3.6739E-02
487.94	3.5851E-02
488.14	3.6804E-02
488.34	3.6891E-02
488.54	3.7160E-02
488.75	3.6729E-02
488.95	3.7087E-02
489.15	3.6742E-02
489.35	3.6584E-02
489.55	3.7098E-02
489.75	3.7329E-02
489.95	3.6929E-02
490.15	3.7155E-02
490.36	3.7669E-02
490.56	3.7209E-02
490.76	3.7857E-02
490.96	3.6843E-02
491.16	3.7646E-02
491.36	3.7363E-02
491.56	3.7460E-02
491.76	3.6496E-02
491.96	3.7358E-02
492.17	3.6960E-02
492.37	3.7606E-02
492.57	3.7886E-02
492.77	3.8148E-02
492.97	3.7867E-02
493.17	3.7898E-02
493.37	3.8188E-02
493.57	3.7825E-02
493.77	3.7598E-02
493.97	3.8880E-02
494.17	3.8059E-02
494.38	3.8565E-02
494.58	3.8067E-02
494.78	3.7748E-02
494.98	3.7967E-02
495.18	3.8240E-02
495.38	3.8168E-02
495.58	3.8387E-02
495.78	3.8597E-02
495.98	3.8596E-02
496.18	3.8354E-02
496.38	3.8071E-02
496.58	3.7816E-02
496.78	3.8678E-02
496.99	3.8175E-02
497.19	3.7906E-02
497.39	3.8263E-02
497.59	3.7901E-02
497.79	3.7356E-02
497.99	3.8153E-02
498.19	3.7792E-02
498.39	3.8108E-02
498.59	3.7529E-02
498.79	3.7424E-02
498.99	3.7625E-02
499.19	3.7703E-02
499.39	3.7812E-02
499.59	3.7052E-02
499.79	3.7180E-02
499.99	3.7180E-02
500.19	3.7481E-02
500.40	3.7617E-02
500.60	3.7463E-02
500.80	3.7792E-02
501.00	3.7189E-02
501.20	3.7497E-02
501.40	3.7616E-02
501.60	3.7574E-02
501.80	3.7602E-02
502.00	3.7948E-02
502.20	3.7979E-02
502.40	3.8155E-02
502.60	3.8054E-02
502.80	3.8973E-02
503.00	3.8958E-02
503.20	3.8938E-02
503.40	3.9060E-02
503.60	3.9437E-02
503.80	3.9970E-02
504.00	3.9892E-02
504.20	4.0414E-02
504.40	4.0499E-02
504.60	4.0929E-02
504.80	4.1108E-02
505.00	4.1296E-02
505.20	4.1777E-02
505.40	4.1811E-02
505.60	4.1945E-02
505.80	4.2361E-02
506.00	4.2568E-02
506.20	4.2738E-02
506.40	4.2920E-02
506.60	4.3206E-02
506.80	4.3143E-02
507.00	4.3655E-02
507.20	4.4009E-02
507.40	4.4385E-02
507.60	4.4172E-02
507.80	4.4581E-02
508.00	4.4889E-02
508.20	4.5425E-02
508.40	4.5392E-02
508.60	4.5339E-02
508.80	4.5360E-02
509.00	4.6455E-02
509.20	4.6365E-02
509.40	4.6440E-02
509.60	4.6833E-02
509.80	4.6817E-02
510.00	4.7536E-02
510.20	4.7619E-02
510.40	4.7932E-02
510.60	4.7853E-02
510.80	4.7803E-02
511.00	4.7998E-02
511.20	4.8786E-02
511.40	4.8570E-02
511.60	4.8828E-02
511.80	4.9146E-02
512.00	4.9268E-02
512.20	4.9629E-02
512.40	4.9511E-02
512.60	4.9804E-02
512.80	4.9967E-02
513.00	5.0368E-02
513.20	5.0279E-02
513.40	5.0158E-02
513.59	5.0095E-02
513.79	5.0557E-02
513.99	5.0491E-02
514.19	5.0610E-02
514.39	5.0481E-02
514.59	5.0818E-02
514.79	5.0641E-02
514.99	5.0755E-02
515.19	5.1051E-02
515.39	5.1218E-02
515.59	5.1402E-02
515.79	5.1007E-02
515.99	5.1844E-02
516.19	5.1980E-02
516.39	5.2055E-02
516.59	5.2375E-02
516.79	5.2979E-02
516.98	5.2751E-02
517.18	5.3660E-02
517.38	5.3923E-02
517.58	5.4309E-02
517.78	5.4689E-02
517.98	5.5164E-02
518.18	5.5768E-02
518.38	5.6896E-02
518.58	5.6919E-02
518.78	5.7422E-02
518.98	5.7912E-02
519.18	5.8670E-02
519.38	5.9447E-02
519.57	5.9831E-02
519.77	6.0083E-02
519.97	6.0973E-02
520.17	6.1352E-02
520.37	6.1796E-02
520.57	6.2487E-02
520.77	6.3053E-02
520.97	6.3377E-02
521.17	6.3670E-02
521.37	6.4407E-02
521.57	6.5138E-02
521.76	6.5234E-02
521.96	6.5992E-02
522.16	6.6284E-02
522.36	6.7142E-02
522.56	6.6850E-02
522.76	6.7441E-02
522.96	6.8101E-02
523.16	6.8107E-02
523.36	6.8654E-02
523.55	6.8524E-02
523.75	6.8845E-02
523.95	6.9039E-02
524.15	6.9031E-02
524.35	6.9473E-02
524.55	6.9744E-02
524.75	7.0181E-02
524.95	7.0544E-02
525.14	7.0650E-02
525.34	7.0808E-02
525.54	7.0739E-02
525.74	7.1275E-02
525.94	7.1581E-02
526.14	7.2222E-02
526.34	7.2432E-02
526.54	7.3028E-02
526.73	7.2775E-02
526.93	7.3760E-02
527.13	7.4245E-02
527.33	7.4808E-02
527.53	7.5453E-02
527.73	7.5653E-02
527.93	7.6543E-02
528.12	7.6641E-02
528.32	7.7402E-02
528.52	7.8355E-02
528.72	7.8983E-02
528.92	7.9107E-02
529.12	7.9524E-02
529.32	7.9979E-02
529.51	8.0464E-02
529.71	8.0863E-02
529.91	8.1065E-02
530.11	8.1676E-02
530.31	8.2306E-02
530.51	8.2165E-02
530.70	8.2349E-02
530.90	8.2993E-02
531.10	8.2985E-02
531.30	8.3462E-02
531.50	8.3544E-02
531.70	8.3846E-02
531.89	8.3760E-02
532.09	8.4044E-02
532.29	8.4145E-02
532.49	8.4767E-02
532.69	8.4809E-02
532.88	8.4956E-02
533.08	8.4984E-02
533.28	8.5528E-02
533.48	8.6250E-02
533.68	8.6237E-02
533.88	8.6950E-02
534.07	8.7113E-02
534.27	8.7272E-02
534.47	8.7699E-02
534.67	8.7260E-02
534.87	8.8125E-02
535.06	8.8313E-02
535.26	8.8293E-02
535.46	8.8310E-02
535.66	8.9402E-02
535.86	8.9001E-02
536.05	8.9106E-02
536.25	8.9344E-02
536.45	8.9565E-02
536.65	8.9590E-02
536.85	8.9550E-02
537.04	8.9896E-02
537.24	9.0325E-02
537.44	8.9489E-02
537.64	8.9319E-02
537.83	9.0042E-02
538.03	9.0244E-02
538.23	9.0616E-02
538.43	9.0572E-02
538.63	9.0142E-02
538.82	9.0427E-02
539.02	9.0459E-02
539.22	9.0848E-02
539.42	9.0508E-02
539.61	9.0911E-02
539.81	9.0960E-02
540.01	9.0638E-02
540.21	9.1014E-02
540.41	9.1114E-02
540.60	9.1335E-02
540.80	9.1509E-02
541.00	9.1581E-02
541.20	9.2086E-02
541.39	9.2151E-02
541.59	9.2301E-02
541.79	9.2605E-02
541.99	9.3324E-02
542.18	9.3254E-02
542.38	9.3452E-02
542.58	9.3667E-02
542.78	9.4133E-02
542.97	9.3868E-02
543.17	9.4591E-02
543.37	9.4360E-02
543.57	9.5179E-02
543.76	9.5761E-02
543.96	9.5788E-02
544.16	9.5598E-02
544.36	9.6031E-02
544.55	9.6684E-02
544.75	9.6630E-02
544.95	9.7068E-02
545.14	9.6432E-02
545.34	9.7546E-02
545.54	9.7298E-02
545.74	9.7687E-02
545.93	9.8238E-02
546.13	9.8198E-02
546.33	9.8028E-02
546.53	9.8043E-02
546.72	9.8812E-02
546.92	9.8940E-02
547.12	9.8785E-02
547.31	9.9164E-02
547.51	9.9134E-02
547.71	9.9713E-02
547.91	9.9896E-02
548.10	9.9358E-02
548.30	9.9878E-02
548.50	1.0055E-01
548.69	1.0052E-01
548.89	1.0052E-01
549.09	1.0066E-01
549.29	1.0059E-01
549.48	1.0171E-01
549.68	1.0084E-01
549.88	1.0160E-01
550.07	1.0188E-01
550.27	1.0199E-01
550.47	1.0016E-01
550.66	1.0290E-01
550.86	1.0201E-01
551.06	1.0316E-01
551.25	1.0250E-01
551.45	1.0335E-01
551.65	1.0357E-01
551.85	1.0404E-01
552.04	1.0289E-01
552.24	1.0372E-01
552.44	1.0337E-01
552.63	1.0349E-01
552.83	1.0403E-01
553.03	1.0348E-01
553.22	1.0453E-01
553.42	1.0391E-01
553.62	1.0475E-01
553.81	1.0397E-01
554.01	1.0434E-01
554.21	1.0373E-01
554.40	1.0413E-01
554.60	1.0392E-01
554.80	1.0415E-01
554.99	1.0399E-01
555.19	1.0380E-01
555.39	1.0395E-01
555.58	1.0341E-01
555.78	1.0343E-01
555.98	1.0310E-01
556.17	1.0305E-01
556.37	1.0297E-01
556.56	1.0291E-01
556.76	1.0278E-01
556.96	1.0224E-01
557.15	1.0239E-01
557.35	1.0215E-01
557.55	1.0208E-01
557.74	1.0197E-01
557.94	1.0226E-01
558.14	1.0250E-01
558.33	1.0180E-01
558.53	1.0170E-01
558.73	1.0209E-01
558.92	1.0157E-01
559.12	1.0242E-01
559.31	1.0253E-01
559.51	1.0283E-01
559.71	1.0231E-01
559.90	1.0271E-01
560.10	1.0284E-01
560.30	1.0278E-01
560.49	1.0274E-01
560.69	1.0323E-01
560.88	1.0367E-01
561.08	1.0277E-01
561.28	1.0295E-01
561.47	1.0350E-01
561.67	1.0359E-01
561.86	1.0307E-01
562.06	1.0332E-01
562.26	1.0357E-01
562.45	1.0309E-01
562.65	1.0325E-01
562.84	1.0242E-01
563.04	1.0258E-01
563.24	1.0243E-01
563.43	1.0301E-01
563.63	1.0294E-01
563.82	1.0241E-01
564.02	1.0276E-01
564.22	1.0284E-01
564.41	1.0199E-01
564.61	1.0220E-01
564.80	1.0206E-01
565.00	1.0144E-01
565.20	1.0206E-01
565.39	1.0099E-01
565.59	1.0051E-01
565.78	1.0090E-01
565.98	1.0021E-01
566.18	1.0093E-01
566.37	1.0046E-01
566.57	1.0014E-01
566.76	9.9790E-02
566.96	1.0032E-01
567.15	9.9568E-02
567.35	1.0026E-01
567.55	9.9551E-02
567.74	9.9414E-02
567.94	9.8831E-02
568.13	9.9021E-02
568.33	9.9184E-02
568.52	9.8844E-02
568.72	9.8221E-02
568.91	9.7968E-02
569.11	9.7937E-02
569.31	9.8414E-02
569.50	9.7534E-02
569.70	9.7910E-02
569.89	9.7634E-02
570.09	9.7372E-02
570.28	9.7211E-02
570.48	9.7307E-02
570.67	9.7877E-02
570.87	9.6902E-02
571.07	9.6836E-02
571.26	9.7440E-02
571.46	9.7296E-02
571.65	9.7307E-02
571.85	9.7546E-02
572.04	9.7130E-02
572.24	9.7721E-02
572.43	9.6913E-02
572.63	9.7446E-02
572.82	9.6851E-02
573.02	9.7310E-02
573.21	9.6762E-02
573.41	9.6967E-02
573.60	9.7293E-02
573.80	9.6974E-02
573.99	9.6545E-02
574.19	9.7086E-02
574.38	9.6407E-02
574.58	9.6535E-02
574.78	9.5644E-02
574.97	9.6234E-02
575.17	9.5887E-02
575.36	9.5426E-02
575.56	9.4985E-02
575.75	9.5939E-02
575.95	9.5189E-02
576.14	9.4857E-02
576.34	9.5450E-02
576.53	9.4782E-02
576.73	9.4903E-02
576.92	9.4345E-02
577.12	9.5331E-02
577.31	9.3851E-02
577.51	9.5228E-02
577.70	9.4738E-02
577.90	9.4638E-02
578.09	9.4927E-02
578.29	9.4350E-02
578.48	9.5160E-02
578.68	9.4639E-02
578.87	9.5718E-02
579.06	9.4647E-02
579.26	9.5135E-02
579.45	9.4765E-02
579.65	9.5890E-02
579.84	9.5128E-02
580.04	9.5576E-02
580.23	9.5907E-02
580.43	9.4809E-02
580.62	9.5584E-02
580.82	9.5696E-02
581.01	9.5462E-02
581.21	9.5514E-02
581.40	9.5300E-02
581.60	9.6130E-02
581.79	9.6217E-02
581.99	9.5522E-02
582.18	9.5497E-02
582.37	9.5861E-02
582.57	9.5860E-02
582.76	9.6207E-02
582.96	9.6149E-02
583.15	9.5924E-02
583.35	9.5877E-02
583.54	9.5899E-02
583.74	9.5731E-02
583.93	9.5276E-02
584.12	9.4909E-02
584.32	9.5915E-02
584.51	9.5358E-02
584.71	9.4447E-02
584.90	9.4438E-02
585.10	9.4264E-02
585.29	9.4128E-02
585.49	9.4009E-02
585.68	9.3948E-02
585.87	9.3336E-02
586.07	9.2828E-02
586.26	9.2391E-02
586.46	9.2081E-02
586.65	9.1465E-02
586.85	9.1417E-02
587.04	9.0109E-02
587.23	9.0916E-02
587.43	9.0405E-02
587.62	8.8945E-02
587.82	8.9819E-02
588.01	8.9034E-02
588.20	8.9107E-02
588.40	8.8240E-02
588.59	8.8662E-02
588.79	8.8773E-02
588.98	8.9020E-02
589.18	8.8552E-02
589.37	8.8938E-02
589.56	8.8123E-02
589.76	8.7978E-02
589.95	8.9261E-02
590.15	8.8917E-02
590.34	8.8506E-02
590.53	8.9677E-02
590.73	8.9153E-02
590.92	8.9352E-02
591.11	9.0057E-02
591.31	9.0233E-02
591.50	9.0600E-02
591.70	9.0356E-02
591.89	9.1063E-02
592.08	9.0105E-02
592.28	8.9866E-02
592.47	9.1065E-02
592.67	9.1046E-02
592.86	9.1139E-02
593.05	9.0379E-02
593.25	9.1296E-02
593.44	9.0933E-02
593.63	9.1758E-02
593.83	9.1021E-02
594.02	9.2070E-02
594.22	9.1992E-02
594.41	9.2582E-02
594.60	9.1843E-02
594.80	9.2120E-02
594.99	9.2312E-02
595.18	9.2290E-02
595.38	9.2012E-02
595.57	9.2429E-02
595.76	9.2637E-02
595.96	9.2484E-02
596.15	9.1743E-02
596.34	9.3469E-02
596.54	9.3265E-02
596.73	9.2906E-02
596.93	9.3285E-02
597.12	9.2871E-02
597.31	9.3458E-02
597.51	9.3180E-02
597.70	9.3420E-02
597.89	9.3183E-02
598.09	9.2976E-02
598.28	9.4611E-02
598.47	9.3285E-02
598.67	9.3627E-02
598.86	9.3026E-02
599.05	9.4158E-02
599.25	9.3751E-02
599.44	9.4208E-02
599.63	9.4743E-02
599.83	9.4089E-02
600.02	9.4299E-02
600.21	9.4574E-02
600.41	9.4812E-02
600.60	9.4191E-02
600.79	9.4856E-02
600.98	9.4982E-02
601.18	9.5889E-02
601.37	9.4855E-02
601.56	9.5089E-02
601.76	9.6715E-02
601.95	9.5448E-02
602.14	9.5931E-02
602.34	9.5879E-02
602.53	9.6735E-02
602.72	9.5920E-02
602.92	9.6729E-02
603.11	9.6416E-02
603.30	9.6990E-02
603.49	9.6597E-02
603.69	9.7770E-02
603.88	9.7068E-02
604.07	9.7606E-02
604.27	9.6998E-02
604.46	9.6537E-02
604.65	9.7146E-02
604.84	9.6910E-02
605.04	9.7246E-02
605.23	9.7028E-02
605.42	9.6970E-02
605.62	9.7247E-02
605.81	9.6474E-02
606.00	9.6515E-02
606.19	9.6902E-02
606.39	9.6933E-02
606.58	9.6158E-02
606.77	9.6221E-02
606.97	9.5581E-02
607.16	9.6370E-02
607.35	9.6529E-02
607.54	9.5817E-02
607.74	9.6324E-02
607.93	9.6419E-02
608.12	9.5501E-02
608.31	9.5847E-02
608.51	9.5944E-02
608.70	9.5422E-02
608.89	9.5280E-02
609.08	9.4811E-02
609.28	9.5350E-02
609.47	9.5395E-02
609.66	9.5530E-02
609.85	9.5629E-02
610.05	9.5775E-02
610.24	9.4940E-02
610.43	9.5166E-02
610.62	9.4926E-02
610.82	9.4715E-02
611.01	9.5157E-02
611.20	9.4732E-02
611.39	9.4792E-02
611.59	9.4610E-02
611.78	9.5070E-02
611.97	9.4743E-02
612.16	9.5369E-02
612.35	9.4248E-02
612.55	9.4356E-02
612.74	9.4910E-02
612.93	9.4670E-02
613.12	9.3624E-02
613.32	9.4207E-02
613.51	9.4317E-02
613.70	9.4145E-02
613.89	9.4125E-02
614.08	9.4211E-02
614.28	9.4008E-02
614.47	9.3545E-02
614.66	9.3842E-02
614.85	9.4261E-02
615.04	9.4189E-02
615.24	9.5052E-02
615.43	9.4234E-02
615.62	9.3976E-02
615.81	9.4111E-02
616.00	9.3290E-02
616.20	9.4344E-02
616.39	9.4582E-02
616.58	9.4577E-02
616.77	9.4667E-02
616.96	9.5974E-02
617.16	9.6036E-02
617.35	9.5807E-02
617.54	9.5515E-02
617.73	9.5456E-02
617.92	9.5752E-02
618.12	9.6731E-02
618.31	9.6607E-02
618.50	9.6987E-02
618.69	9.6625E-02
618.88	9.8043E-02
619.07	9.7553E-02
619.27	9.7834E-02
619.46	9.8111E-02
619.65	9.9003E-02
619.84	9.8047E-02
620.03	9.7964E-02
620.22	9.8900E-02
620.42	9.7216E-02
620.61	9.9135E-02
620.80	9.8768E-02
620.99	9.8563E-02
621.18	9.9460E-02
621.37	9.8312E-02
621.57	9.7214E-02
621.76	9.8501E-02
621.95	9.8198E-02
622.14	9.7478E-02
622.33	9.6958E-02
622.52	9.7561E-02
622.71	9.8189E-02
622.91	9.8399E-02
623.10	9.8126E-02
623.29	9.7723E-02
623.48	9.7269E-02
623.67	9.7896E-02
623.86	9.7699E-02
624.05	9.7418E-02
624.25	9.6819E-02
624.44	9.7706E-02
624.63	9.8265E-02
624.82	9.7622E-02
625.01	9.7141E-02
625.20	9.7954E-02
625.39	9.6573E-02
625.58	9.7661E-02
625.78	9.7906E-02
625.97	9.6373E-02
626.16	9.7120E-02
626.35	9.6848E-02
626.54	9.7730E-02
626.73	9.7620E-02
626.92	9.6948E-02
627.11	9.6719E-02
627.31	9.6668E-02
627.50	9.6500E-02
627.69	9.7029E-02
627.88	9.7395E-02
628.07	9.5384E-02
628.26	9.6513E-02
628.45	9.6036E-02
628.64	9.6311E-02
628.83	9.6252E-02
629.02	9.4964E-02
629.22	9.7529E-02
629.41	9.6054E-02
629.60	9.5081E-02
629.79	9.7084E-02
629.98	9.6070E-02
630.17	9.6641E-02
630.36	9.6609E-02
630.55	9.6619E-02
630.74	9.6929E-02
630.93	9.7544E-02
631.12	9.6076E-02
631.31	9.6268E-02
631.51	9.7375E-02
631.70	9.7161E-02
631.89	9.6303E-02
632.08	9.6489E-02
632.27	9.6824E-02
632.46	9.6708E-02
632.65	9.6932E-02
632.84	9.6006E-02
633.03	9.7698E-02
633.22	9.6760E-02
633.41	9.7723E-02
633.60	9.7624E-02
633.79	9.6818E-02
633.98	9.5667E-02
634.17	9.6859E-02
634.37	9.6714E-02
634.56	9.7472E-02
634.75	9.5922E-02
634.94	9.7310E-02
635.13	9.6566E-02
635.32	9.7303E-02
635.51	9.7079E-02
635.70	9.5855E-02
635.89	9.7828E-02
636.08	9.6333E-02
636.27	9.5629E-02
636.46	9.6631E-02
636.65	9.5641E-02
636.84	9.4662E-02
637.03	9.5863E-02
637.22	9.5562E-02
637.41	9.4885E-02
637.60	9.5264E-02
637.79	9.5126E-02
637.98	9.4754E-02
638.17	9.4557E-02
638.36	9.3556E-02
638.55	9.2752E-02
638.74	9.2709E-02
638.93	9.3008E-02
639.12	9.2593E-02
639.31	9.2674E-02
639.50	9.2125E-02
639.69	9.1721E-02
639.88	9.2715E-02
640.07	9.1522E-02
640.26	9.2358E-02
640.45	9.1682E-02
640.64	9.1919E-02
640.83	9.1798E-02
641.02	9.2436E-02
641.21	9.1355E-02
641.40	8.9742E-02
641.59	9.1153E-02
641.78	9.1416E-02
641.97	9.0899E-02
642.16	9.1174E-02
642.35	9.0723E-02
642.54	9.0483E-02
642.73	8.9792E-02
642.92	8.7473E-02
643.11	8.9858E-02
643.30	8.9923E-02
643.49	8.8527E-02
643.68	8.8654E-02
643.87	8.7238E-02
644.06	8.8182E-02
644.25	8.7216E-02
644.44	8.7195E-02
644.63	8.6697E-02
644.82	8.6371E-02
645.01	8.6690E-02
645.20	8.6330E-02
645.39	8.5550E-02
645.58	8.4925E-02
645.77	8.4736E-02
645.96	8.5645E-02
646.15	8.4646E-02
646.34	8.4581E-02
646.53	8.4142E-02
646.72	8.4413E-02
646.91	8.3220E-02
647.10	8.4933E-02
647.29	8.3323E-02
647.47	8.3947E-02
647.66	8.2979E-02
647.85	8.2315E-02
648.04	8.2193E-02
648.23	8.2200E-02
648.42	8.4118E-02
648.61	8.1263E-02
648.80	8.2484E-02
648.99	8.3172E-02
649.18	8.1582E-02
649.37	8.2816E-02
649.56	8.2372E-02
649.75	8.1977E-02
649.94	8.2906E-02
650.13	8.2458E-02
650.31	8.2671E-02
650.50	8.1840E-02
650.69	8.2338E-02
650.88	8.1707E-02
651.07	8.1812E-02
651.26	8.2128E-02
651.45	8.3178E-02
651.64	8.2316E-02
651.83	8.1230E-02
652.02	8.1840E-02
652.21	8.1027E-02
652.40	8.0934E-02
652.58	8.2690E-02
652.77	8.0279E-02
652.96	7.9543E-02
653.15	8.0440E-02
653.34	7.9942E-02
653.53	7.9433E-02
653.72	7.9069E-02
653.91	7.7637E-02
654.10	7.7909E-02
654.29	7.6855E-02
654.47	7.8639E-02
654.66	7.5837E-02
654.85	7.6125E-02
655.04	7.5161E-02
655.23	7.6080E-02
655.42	7.4490E-02
655.61	7.5583E-02
655.80	7.5257E-02
655.98	7.6187E-02
656.17	7.5874E-02
656.36	7.6490E-02
656.55	7.5731E-02
656.74	7.7417E-02
656.93	7.7214E-02
657.12	7.7746E-02
657.31	7.6732E-02
657.49	7.9337E-02
657.68	7.8831E-02
657.87	7.7210E-02
658.06	8.0087E-02
658.25	7.8816E-02
658.44	8.0017E-02
658.63	7.9470E-02
658.81	7.9255E-02
659.00	8.0356E-02
659.19	7.9767E-02
659.38	8.1613E-02
659.57	8.1507E-02
659.76	8.0333E-02
659.95	8.1796E-02
660.13	7.9438E-02
660.32	8.0943E-02
660.51	8.0371E-02
660.70	8.1322E-02
660.89	8.0436E-02
661.08	8.0680E-02
661.26	7.9909E-02
661.45	8.0886E-02
661.64	7.9967E-02
661.83	7.9779E-02
662.02	7.9938E-02
662.21	8.0524E-02
662.39	8.0935E-02
662.58	7.9764E-02
662.77	8.1365E-02
662.96	8.0452E-02
663.15	7.9262E-02
663.33	8.0980E-02
663.52	7.9632E-02
663.71	7.9515E-02
663.90	7.9666E-02
664.09	7.8435E-02
664.28	7.9244E-02
664.46	7.8390E-02
664.65	7.8496E-02
664.84	7.7697E-02
665.03	7.8774E-02
665.22	7.9170E-02
665.40	7.8902E-02
665.59	7.8154E-02
665.78	7.8061E-02
665.97	7.7971E-02
666.16	7.8708E-02
666.34	7.9364E-02
666.53	7.7678E-02
666.72	7.9107E-02
666.91	7.8116E-02
667.09	7.8234E-02
667.28	7.8996E-02
667.47	7.8734E-02
667.66	7.8146E-02
667.85	7.7848E-02
668.03	7.4311E-02
668.22	7.8371E-02
668.41	7.7662E-02
668.60	7.5464E-02
668.78	7.8146E-02
668.97	7.6998E-02
669.16	7.6146E-02
669.35	7.7944E-02
669.54	7.6097E-02
669.72	7.7898E-02
669.91	7.6892E-02
670.10	7.7414E-02
670.29	7.7147E-02
670.47	7.8040E-02
670.66	7.8465E-02
670.85	7.7325E-02
671.04	7.5974E-02
671.22	7.5840E-02
671.41	7.7033E-02
671.60	7.7213E-02
671.79	7.7438E-02
671.97	7.6785E-02
672.16	7.8690E-02
672.35	7.8051E-02
672.54	7.7929E-02
672.72	7.6958E-02
672.91	7.6257E-02
673.10	7.6914E-02
673.28	7.6203E-02
673.47	7.6441E-02
673.66	7.6381E-02
673.85	7.8090E-02
674.03	7.7064E-02
674.22	7.6846E-02
674.41	7.5775E-02
674.60	7.5806E-02
674.78	7.4406E-02
674.97	7.5335E-02
675.16	7.8376E-02
675.34	7.6952E-02
675.53	7.5834E-02
675.72	7.5056E-02
675.91	7.7719E-02
676.09	7.6366E-02
676.28	7.7044E-02
676.47	7.6666E-02
676.65	7.4989E-02
676.84	7.6196E-02
677.03	7.6975E-02
677.22	7.5597E-02
677.40	7.6671E-02
677.59	7.6226E-02
677.78	7.5711E-02
677.96	7.6102E-02
678.15	7.6959E-02
678.34	7.8111E-02
678.52	7.5746E-02
678.71	7.6249E-02
678.90	7.6289E-02
679.08	7.6778E-02
679.27	7.5563E-02
679.46	7.7780E-02
679.64	7.6641E-02
679.83	7.5973E-02
680.02	7.6193E-02
680.21	7.4098E-02
680.39	7.7179E-02
680.58	7.6293E-02
680.77	7.5976E-02
680.95	7.6375E-02
681.14	7.4602E-02
681.33	7.6190E-02
681.51	7.7290E-02
681.70	7.6741E-02
681.89	7.7611E-02
682.07	7.6632E-02
682.26	7.4740E-02
682.44	7.7237E-02
682.63	7.7052E-02
682.82	7.7704E-02
683.00	7.4456E-02
683.19	7.6481E-02
683.38	7.6893E-02
683.56	7.7384E-02
683.75	7.6634E-02
683.94	7.4752E-02
684.12	7.4622E-02
684.31	7.6106E-02
684.50	7.6196E-02
684.68	7.4444E-02
684.87	7.4146E-02
685.05	7.4490E-02
685.24	7.2620E-02
685.43	7.3272E-02
685.61	7.3052E-02
685.80	7.1560E-02
685.99	7.2889E-02
686.17	7.1011E-02
686.36	7.2831E-02
686.54	7.2613E-02
686.73	7.2177E-02
686.92	7.2403E-02
687.10	7.1695E-02
687.29	7.3300E-02
687.48	7.1868E-02
687.66	7.4515E-02
687.85	7.2928E-02
688.03	7.3865E-02
688.22	7.2922E-02
688.41	7.5376E-02
688.59	7.3745E-02
688.78	7.6289E-02
688.96	7.7350E-02
689.15	7.8805E-02
689.34	7.5779E-02
689.52	8.0454E-02
689.71	7.9467E-02
689.89	8.0761E-02
690.08	8.2755E-02
690.27	8.1826E-02
690.45	8.1702E-02
690.64	8.1990E-02
690.82	8.1672E-02
691.01	8.3766E-02
691.19	8.3672E-02
691.38	8.4798E-02
691.57	8.6131E-02
691.75	8.4935E-02
691.94	8.7470E-02
692.12	8.6742E-02
692.31	8.8784E-02
692.50	8.8265E-02
692.68	8.9844E-02
692.87	9.1367E-02
693.05	9.1207E-02
693.24	9.0181E-02
693.42	9.1694E-02
693.61	9.3263E-02
693.79	9.5036E-02
693.98	9.4069E-02
694.17	9.5970E-02
694.35	9.8290E-02
694.54	9.9246E-02
694.72	9.9277E-02
694.91	1.0035E-01
695.09	1.0147E-01
695.28	1.0258E-01
695.46	1.0388E-01
695.65	1.0524E-01
695.83	1.0643E-01
696.02	1.0834E-01
696.21	1.0954E-01
696.39	1.0920E-01
696.58	1.1096E-01
696.76	1.0889E-01
696.95	1.1141E-01
697.13	1.1281E-01
697.32	1.1431E-01
697.50	1.1504E-01
697.69	1.1608E-01
697.87	1.1750E-01
698.06	1.1827E-01
698.24	1.1747E-01
698.43	1.1861E-01
698.61	1.2150E-01
698.80	1.2091E-01
698.98	1.2302E-01
699.17	1.2044E-01
699.35	1.2366E-01
699.54	1.2363E-01
699.72	1.2291E-01
699.91	1.2666E-01
700.09	1.2734E-01
700.28	1.2841E-01
700.46	1.2946E-01
700.65	1.2970E-01
700.83	1.3156E-01
701.02	1.3315E-01
701.20	1.3091E-01
701.39	1.3566E-01
701.57	1.3561E-01
701.76	1.3546E-01
701.94	1.3789E-01
702.13	1.3956E-01
702.31	1.3799E-01
702.50	1.4466E-01
702.68	1.4463E-01
702.87	1.4626E-01
703.05	1.4775E-01
703.24	1.4789E-01
703.42	1.4593E-01
703.61	1.5117E-01
703.79	1.5310E-01
703.98	1.5139E-01
704.16	1.5390E-01
704.35	1.5453E-01
704.53	1.5671E-01
704.72	1.5801E-01
704.90	1.5963E-01
705.08	1.5913E-01
705.27	1.6323E-01
705.45	1.6391E-01
705.64	1.6577E-01
705.82	1.6628E-01
706.01	1.6741E-01
706.19	1.6750E-01
706.38	1.6940E-01
706.56	1.7235E-01
706.75	1.7302E-01
706.93	1.7339E-01
707.11	1.7286E-01
707.30	1.7625E-01
707.48	1.7693E-01
707.67	1.7640E-01
707.85	1.7842E-01
708.04	1.8019E-01
708.22	1.8077E-01
708.40	1.8076E-01
708.59	1.8114E-01
708.77	1.8476E-01
708.96	1.8498E-01
709.14	1.8686E-01
709.33	1.8711E-01
709.51	1.8921E-01
709.69	1.9033E-01
709.88	1.9190E-01
710.06	1.9269E-01
710.25	1.9226E-01
710.43	1.9464E-01
710.62	1.9681E-01
710.80	1.9664E-01
710.98	1.9822E-01
711.17	1.9882E-01
711.35	2.0055E-01
711.54	2.0206E-01
711.72	2.0155E-01
711.90	2.0403E-01
712.09	2.0489E-01
712.27	2.0371E-01
712.46	2.0601E-01
712.64	2.0529E-01
712.82	2.0804E-01
713.01	2.0829E-01
713.19	2.0846E-01
713.37	2.0746E-01
713.56	2.0701E-01
713.74	2.0830E-01
713.93	2.0670E-01
714.11	2.0564E-01
714.29	2.0368E-01
714.48	2.0562E-01
714.66	2.0497E-01
714.85	2.0293E-01
715.03	2.0218E-01
715.21	2.0080E-01
715.40	1.9858E-01
715.58	1.9755E-01
715.76	1.9520E-01
715.95	1.9471E-01
716.13	1.9506E-01
716.31	1.9269E-01
716.50	1.9097E-01
716.68	1.8872E-01
716.87	1.8927E-01
717.05	1.8861E-01
717.23	1.8637E-01
717.42	1.8737E-01
717.60	1.8644E-01
717.78	1.8715E-01
717.97	1.8738E-01
718.15	1.8694E-01
718.33	1.8714E-01
718.52	1.8910E-01
718.70	1.9110E-01
718.88	1.9076E-01
719.07	1.9556E-01
719.25	1.9456E-01
719.43	1.9705E-01
719.62	1.9810E-01
719.80	1.9986E-01
719.98	2.0395E-01
720.17	2.0457E-01
720.35	2.0627E-01
720.53	2.0963E-01
720.72	2.1189E-01
720.90	2.1200E-01
721.08	2.1233E-01
721.27	2.1442E-01
721.45	2.1573E-01
721.63	2.1662E-01
721.82	2.1863E-01
722.00	2.1831E-01
722.18	2.1909E-01
722.36	2.2167E-01
722.55	2.2149E-01
722.73	2.2216E-01
722.91	2.2253E-01
723.10	2.2400E-01
723.28	2.2351E-01
723.46	2.2099E-01
723.65	2.2375E-01
723.83	2.2413E-01
724.01	2.2437E-01
724.19	2.2627E-01
724.38	2.2702E-01
724.56	2.2844E-01
724.74	2.2999E-01
724.93	2.2806E-01
725.11	2.2950E-01
725.29	2.3229E-01
725.47	2.3323E-01
725.66	2.3432E-01
725.84	2.3486E-01
726.02	2.3611E-01
726.21	2.3862E-01
726.39	2.3789E-01
726.57	2.3949E-01
726.75	2.4000E-01
726.94	2.4333E-01
727.12	2.4277E-01
727.30	2.4392E-01
727.48	2.4412E-01
727.67	2.4760E-01
727.85	2.4757E-01
728.03	2.4988E-01
728.21	2.5244E-01
728.40	2.5210E-01
728.58	2.5594E-01
728.76	2.5610E-01
728.94	2.5874E-01
729.13	2.6148E-01
729.31	2.6140E-01
729.49	2.6468E-01
729.67	2.6674E-01
729.86	2.6955E-01
730.04	2.6978E-01
730.22	2.7455E-01
730.40	2.7661E-01
730.59	2.7916E-01
730.77	2.8211E-01
730.95	2.8634E-01
731.13	2.8806E-01
731.31	2.9130E-01
731.50	2.9177E-01
731.68	2.9773E-01
731.86	2.9860E-01
732.04	3.0190E-01
732.23	3.0548E-01
732.41	3.0661E-01
732.59	3.0948E-01
732.77	3.1196E-01
732.95	3.1400E-01
733.14	3.1516E-01
733.32	3.1930E-01
733.50	3.2004E-01
733.68	3.2164E-01
733.86	3.2357E-01
734.05	3.2617E-01
734.23	3.2817E-01
734.41	3.2678E-01
734.59	3.2988E-01
734.77	3.3148E-01
734.96	3.3043E-01
735.14	3.3472E-01
735.32	3.3556E-01
735.50	3.3675E-01
735.68	3.3988E-01
735.87	3.3968E-01
736.05	3.4318E-01
736.23	3.4058E-01
736.41	3.4506E-01
736.59	3.4547E-01
736.77	3.4601E-01
736.96	3.4665E-01
737.14	3.4658E-01
737.32	3.5059E-01
737.50	3.5238E-01
737.68	3.5249E-01
737.87	3.5447E-01
738.05	3.5662E-01
738.23	3.5442E-01
738.41	3.5633E-01
738.59	3.5810E-01
738.77	3.5970E-01
738.95	3.6240E-01
739.14	3.6076E-01
739.32	3.6158E-01
739.50	3.6548E-01
739.68	3.6394E-01
739.86	3.6580E-01
740.04	3.6660E-01
740.23	3.6594E-01
740.41	3.6949E-01
740.59	3.7097E-01
740.77	3.7303E-01
740.95	3.7273E-01
741.13	3.7302E-01
741.31	3.7333E-01
741.50	3.7499E-01
741.68	3.7523E-01
741.86	3.7588E-01
742.04	3.7888E-01
742.22	3.8071E-01
742.40	3.8083E-01
742.58	3.8273E-01
742.76	3.8394E-01
742.95	3.8208E-01
743.13	3.8676E-01
743.31	3.8678E-01
743.49	3.8703E-01
743.67	3.9001E-01
743.85	3.9006E-01
744.03	3.8971E-01
744.21	3.9123E-01
744.39	3.9059E-01
744.58	3.9331E-01
744.76	3.9380E-01
744.94	3.9581E-01
745.12	3.9528E-01
745.30	3.9475E-01
745.48	3.9673E-01
745.66	3.9796E-01
745.84	3.9584E-01
746.02	3.9624E-01
746.20	3.9786E-01
746.38	3.9869E-01
746.57	4.0044E-01
746.75	3.9615E-01
746.93	3.9941E-01
747.11	3.9739E-01
747.29	3.9916E-01
747.47	4.0026E-01
747.65	4.0014E-01
747.83	3.9709E-01
748.01	3.9971E-01
748.19	3.9992E-01
748.37	3.9986E-01
748.55	3.9958E-01
748.73	3.9858E-01
748.92	4.0006E-01
749.10	3.9876E-01
749.28	4.0118E-01
749.46	3.9978E-01
749.64	3.9939E-01
749.82	4.0067E-01
750.00	4.0245E-01
750.18	4.0229E-01
750.36	4.0115E-01
750.54	4.0413E-01
750.72	4.0550E-01
750.90	4.0610E-01
751.08	4.0526E-01
751.26	4.0743E-01
751.44	4.0798E-01
751.62	4.1046E-01
751.80	4.0906E-01
751.98	4.1061E-01
752.16	4.1201E-01
752.34	4.1359E-01
752.52	4.1483E-01
752.71	4.1254E-01
752.89	4.1309E-01
753.07	4.1728E-01
753.25	4.1509E-01
753.43	4.1985E-01
753.61	4.1837E-01
753.79	4.2215E-01
753.97	4.2227E-01
754.15	4.2320E-01
754.33	4.2487E-01
754.51	4.2602E-01
754.69	4.2710E-01
754.87	4.2668E-01
755.05	4.2739E-01
755.23	4.2939E-01
755.41	4.2999E-01
755.59	4.2156E-01
755.77	4.2563E-01
755.95	4.2346E-01
756.13	4.1825E-01
756.31	4.1830E-01
756.49	4.1453E-01
756.67	4.0804E-01
756.85	4.0217E-01
757.03	3.9494E-01
757.21	3.8826E-01
757.39	3.8153E-01
757.57	3.7426E-01
757.75	3.6387E-01
757.93	3.5366E-01
758.11	3.4677E-01
758.29	3.3821E-01
758.47	3.2854E-01
758.65	3.2121E-01
758.83	3.1600E-01
759.01	3.0626E-01
759.18	2.9746E-01
759.36	2.8689E-01
759.54	2.8309E-01
759.72	2.7468E-01
759.90	2.7088E-01
760.08	2.6627E-01
760.26	2.6239E-01
760.44	2.5673E-01
760.62	2.5213E-01
760.80	2.5053E-01
760.98	2.5359E-01
761.16	2.5281E-01
761.34	2.5086E-01
761.52	2.5416E-01
761.70	2.5149E-01
761.88	2.5326E-01
762.06	2.5524E-01
762.24	2.5658E-01
762.42	2.5954E-01
762.60	2.6232E-01
762.78	2.6656E-01
762.95	2.6940E-01
763.13	2.7500E-01
763.31	2.7963E-01
763.49	2.8329E-01
763.67	2.8954E-01
763.85	2.9291E-01
764.03	3.0314E-01
764.21	3.0709E-01
764.39	3.1593E-01
764.57	3.2469E-01
764.75	3.2997E-01
764.93	3.4073E-01
765.11	3.4441E-01
765.28	3.5426E-01
765.46	3.5982E-01
765.64	3.6542E-01
765.82	3.7318E-01
766.00	3.8022E-01
766.18	3.8646E-01
766.36	3.9246E-01
766.54	3.9753E-01
766.72	4.0367E-01
766.90	4.1196E-01
767.07	4.1314E-01
767.25	4.1960E-01
767.43	4.2474E-01
767.61	4.3044E-01
767.79	4.3444E-01
767.97	4.3724E-01
768.15	4.3924E-01
768.33	4.4125E-01
768.51	4.4708E-01
768.68	4.4975E-01
768.86	4.5086E-01
769.04	4.5306E-01
769.22	4.5910E-01
769.40	4.6010E-01
769.58	4.6020E-01
769.76	4.6529E-01
769.94	4.6584E-01
770.11	4.6410E-01
770.29	4.6612E-01
770.47	4.6626E-01
770.65	4.6725E-01
770.83	4.6711E-01
771.01	4.6896E-01
771.19	4.6876E-01
771.36	4.6660E-01
771.54	4.6924E-01
771.72	4.6757E-01
771.90	4.6548E-01
772.08	4.6787E-01
772.26	4.6933E-01
772.44	4.6525E-01
772.61	4.6706E-01
772.79	4.6434E-01
772.97	4.6717E-01
773.15	4.6864E-01
773.33	4.6425E-01
773.51	4.6657E-01
773.68	4.6355E-01
773.86	4.6214E-01
774.04	4.6303E-01
774.22	4.6085E-01
774.40	4.6179E-01
774.58	4.6295E-01
774.75	4.6205E-01
774.93	4.5876E-01
775.11	4.6245E-01
775.29	4.5896E-01
775.47	4.5638E-01
775.64	4.5938E-01
775.82	4.5715E-01
776.00	4.5707E-01
776.18	4.5405E-01
776.36	4.5356E-01
776.53	4.5660E-01
776.71	4.5210E-01
776.89	4.5085E-01
777.07	4.5143E-01
777.25	4.5013E-01
777.42	4.4948E-01
777.60	4.4690E-01
777.78	4.4848E-01
777.96	4.4634E-01
778.14	4.4803E-01
778.31	4.4514E-01
778.49	4.4124E-01
778.67	4.4155E-01
778.85	4.4197E-01
779.03	4.4276E-01
779.20	4.4172E-01
779.38	4.3991E-01
779.56	4.3669E-01
779.74	4.3949E-01
779.91	4.3668E-01
780.09	4.3529E-01
780.27	4.3293E-01
780.45	4.3349E-01
780.62	4.3402E-01
780.80	4.3400E-01
780.98	4.2957E-01
781.16	4.2704E-01
781.34	4.3014E-01
781.51	4.2943E-01
781.69	4.2912E-01
781.87	4.2707E-01
782.05	4.2545E-01
782.22	4.2507E-01
782.40	4.2289E-01
782.58	4.2294E-01
782.76	4.2027E-01
782.93	4.2257E-01
783.11	4.2350E-01
783.29	4.1960E-01
783.47	4.1860E-01
783.64	4.1836E-01
783.82	4.1577E-01
784.00	4.1161E-01
784.17	4.1312E-01
784.35	4.1269E-01
784.53	4.1086E-01
784.71	4.1162E-01
784.88	4.0877E-01
785.06	4.1075E-01
785.24	4.0748E-01
785.42	4.0835E-01
785.59	4.0637E-01
785.77	4.0113E-01
785.95	4.0192E-01
786.12	3.9869E-01
786.30	4.0027E-01
786.48	3.9820E-01
786.65	3.9592E-01
786.83	3.9567E-01
787.01	3.9454E-01
787.19	3.9228E-01
787.36	3.9192E-01
787.54	3.8951E-01
787.72	3.8963E-01
787.89	3.8806E-01
788.07	3.8649E-01
788.25	3.8437E-01
788.42	3.8231E-01
788.60	3.8435E-01
788.78	3.8098E-01
788.96	3.7987E-01
789.13	3.7643E-01
789.31	3.7544E-01
789.49	3.7449E-01
789.66	3.7496E-01
789.84	3.7117E-01
790.02	3.6704E-01
790.19	3.6940E-01
790.37	3.6959E-01
790.55	3.6781E-01
790.72	3.6712E-01
790.90	3.6929E-01
791.08	3.6496E-01
791.25	3.6487E-01
791.43	3.6419E-01
791.61	3.6210E-01
791.78	3.6118E-01
791.96	3.5793E-01
792.14	3.6052E-01
792.31	3.6092E-01
792.49	3.5581E-01
792.67	3.6135E-01
792.84	3.5686E-01
793.02	3.5667E-01
793.19	3.5512E-01
793.37	3.5798E-01
793.55	3.5757E-01
793.72	3.5608E-01
793.90	3.5183E-01
794.08	3.5344E-01
794.25	3.5341E-01
794.43	3.5106E-01
794.61	3.5220E-01
794.78	3.5205E-01
794.96	3.4828E-01
795.13	3.5114E-01
795.31	3.5106E-01
795.49	3.4728E-01
795.66	3.4911E-01
795.84	3.4757E-01
796.01	3.4842E-01
796.19	3.4576E-01
796.37	3.4750E-01
796.54	3.4638E-01
796.72	3.4704E-01
796.90	3.4496E-01
797.07	3.4213E-01
797.25	3.4414E-01
797.42	3.4573E-01
797.60	3.4423E-01
797.78	3.4234E-01
797.95	3.3952E-01
798.13	3.3761E-01
798.30	3.4046E-01
798.48	3.3846E-01
798.66	3.4120E-01
798.83	3.3619E-01
799.01	3.3850E-01
799.18	3.3544E-01
799.36	3.3821E-01
799.53	3.3099E-01
799.71	3.3531E-01
799.89	3.3243E-01
800.06	3.3215E-01
800.24	3.3146E-01
800.41	3.2763E-01
800.59	3.3226E-01
800.76	3.2772E-01
800.94	3.2731E-01
801.12	3.2951E-01
801.29	3.2846E-01
801.47	3.2938E-01
801.64	3.2548E-01
801.82	3.2852E-01
801.99	3.2735E-01
802.17	3.2704E-01
802.34	3.2508E-01
802.52	3.2418E-01
802.70	3.2495E-01
802.87	3.2187E-01
803.05	3.2025E-01
803.22	3.2576E-01
803.40	3.2196E-01
803.57	3.2177E-01
803.75	3.2479E-01
803.92	3.2244E-01
804.10	3.1863E-01
804.27	3.1892E-01
804.45	3.2056E-01
804.63	3.1895E-01
804.80	3.1740E-01
804.98	3.1957E-01
805.15	3.1506E-01
805.33	3.2043E-01
805.50	3.2052E-01
805.68	3.1944E-01
805.85	3.2065E-01
806.03	3.1750E-01
806.20	3.1784E-01
806.38	3.1152E-01
806.55	3.1213E-01
806.73	3.1766E-01
806.90	3.1334E-01
807.08	3.1192E-01
807.25	3.0805E-01
807.43	3.1076E-01
807.60	3.1130E-01
807.78	3.0643E-01
807.95	3.0279E-01
808.13	3.0372E-01
808.30	3.0188E-01
808.48	3.0502E-01
808.65	3.0251E-01
808.83	3.0547E-01
809.00	3.0091E-01
809.18	3.0333E-01
809.35	2.9661E-01
809.53	2.9915E-01
809.70	2.9632E-01
809.88	2.9546E-01
810.05	2.9277E-01
810.23	2.9409E-01
810.40	2.9104E-01
810.57	2.8980E-01
810.75	2.8516E-01
810.92	2.8362E-01
811.10	2.8278E-01
811.27	2.7851E-01
811.45	2.7873E-01
811.62	2.7561E-01
811.80	2.7197E-01
811.97	2.7269E-01
812.15	2.7063E-01
812.32	2.6869E-01
812.50	2.6165E-01
812.67	2.6879E-01
812.84	2.5924E-01
813.02	2.5992E-01
813.19	2.5730E-01
813.37	2.5553E-01
813.54	2.5017E-01
813.72	2.5004E-01
813.89	2.4482E-01
814.07	2.4539E-01
814.24	2.4405E-01
814.41	2.4297E-01
814.59	2.3651E-01
814.76	2.3429E-01
814.94	2.3534E-01
815.11	2.3519E-01
815.29	2.2569E-01
815.46	2.2644E-01
815.63	2.2751E-01
815.81	2.2691E-01
815.98	2.2007E-01
816.16	2.1931E-01
816.33	2.2375E-01
816.50	2.2496E-01
816.68	2.2162E-01
816.85	2.1918E-01
817.03	2.2118E-01
817.20	2.1942E-01
817.37	2.2169E-01
817.55	2.1918E-01
817.72	2.2097E-01
817.90	2.1686E-01
818.07	2.2078E-01
818.24	2.1667E-01
818.42	2.1850E-01
818.59	2.1812E-01
818.77	2.1878E-01
818.94	2.2242E-01
819.11	2.1789E-01
819.29	2.2352E-01
819.46	2.2293E-01
819.64	2.1761E-01
819.81	2.2581E-01
819.98	2.2405E-01
820.16	2.1990E-01
820.33	2.2387E-01
820.50	2.2305E-01
820.68	2.1987E-01
820.85	2.2317E-01
821.02	2.2171E-01
821.20	2.1879E-01
821.37	2.2200E-01
821.55	2.1666E-01
821.72	2.1952E-01
821.89	2.2007E-01
822.07	2.2360E-01
822.24	2.2340E-01
822.41	2.1645E-01
822.59	2.2559E-01
822.76	2.2535E-01
822.93	2.2018E-01
823.11	2.2180E-01
823.28	2.2398E-01
823.45	2.2178E-01
823.63	2.2289E-01
823.80	2.2644E-01
823.97	2.1848E-01
824.15	2.2758E-01
824.32	2.2420E-01
824.49	2.3037E-01
824.67	2.2505E-01
824.84	2.2724E-01
825.01	2.2692E-01
825.19	2.2715E-01
825.36	2.2732E-01
825.53	2.3035E-01
825.71	2.2878E-01
825.88	2.2968E-01
826.05	2.2452E-01
826.23	2.2838E-01
826.40	2.2584E-01
826.57	2.2607E-01
826.75	2.2423E-01
826.92	2.2131E-01
827.09	2.2078E-01
827.26	2.2844E-01
827.44	2.2432E-01
827.61	2.2779E-01
827.78	2.2495E-01
827.96	2.1891E-01
828.13	2.2775E-01
828.30	2.2446E-01
828.48	2.2306E-01
828.65	2.2197E-01
828.82	2.2244E-01
828.99	2.2232E-01
829.17	2.2345E-01
829.34	2.1606E-01
829.51	2.2154E-01
829.68	2.2624E-01
829.86	2.2459E-01
830.03	2.2131E-01
830.20	2.2311E-01
830.38	2.2169E-01
830.55	2.1787E-01
830.72	2.2255E-01
830.89	2.1745E-01
831.07	2.1709E-01
831.24	2.1699E-01
831.41	2.1824E-01
831.58	2.2142E-01
831.76	2.2423E-01
831.93	2.2124E-01
832.10	2.2043E-01
832.27	2.1464E-01
832.45	2.1481E-01
832.62	2.2019E-01
832.79	2.1675E-01
832.96	2.2021E-01
833.14	2.1475E-01
833.31	2.2274E-01
833.48	2.1972E-01
833.65	2.1684E-01
833.83	2.2344E-01
834.00	2.2456E-01
834.17	2.2062E-01
834.34	2.2320E-01
834.51	2.2065E-01
834.69	2.1909E-01
834.86	2.2499E-01
835.03	2.2157E-01
835.20	2.2582E-01
835.38	2.2289E-01
835.55	2.2427E-01
835.72	2.2267E-01
835.89	2.3165E-01
836.06	2.2313E-01
836.24	2.2325E-01
836.41	2.2110E-01
836.58	2.2892E-01
836.75	2.2754E-01
836.92	2.2618E-01
837.10	2.2256E-01
837.27	2.2546E-01
837.44	2.2269E-01
837.61	2.2976E-01
837.78	2.2364E-01
837.96	2.2748E-01
838.13	2.2593E-01
838.30	2.2961E-01
838.47	2.2803E-01
838.64	2.2658E-01
838.82	2.2576E-01
838.99	2.3234E-01
839.16	2.2534E-01
839.33	2.2631E-01
839.50	2.3189E-01
839.67	2.2869E-01
839.85	2.2199E-01
840.02	2.2788E-01
840.19	2.2465E-01
840.36	2.3132E-01
840.53	2.2400E-01
840.70	2.2299E-01
840.88	2.2983E-01
841.05	2.3155E-01
841.22	2.2791E-01
841.39	2.2779E-01
841.56	2.2811E-01
841.73	2.2637E-01
841.91	2.2919E-01
842.08	2.2897E-01
842.25	2.2804E-01
842.42	2.2942E-01
842.59	2.2718E-01
842.76	2.3317E-01
842.93	2.2695E-01
843.11	2.2842E-01
843.28	2.2660E-01
843.45	2.2694E-01
843.62	2.2232E-01
843.79	2.2383E-01
843.96	2.2991E-01
844.13	2.2582E-01
844.30	2.2546E-01
844.48	2.2856E-01
844.65	2.2080E-01
844.82	2.1821E-01
844.99	2.2263E-01
845.16	2.2208E-01
845.33	2.2273E-01
845.50	2.2239E-01
845.67	2.1712E-01
845.84	2.2112E-01
846.02	2.1770E-01
846.19	2.2037E-01
846.36	2.1999E-01
846.53	2.2555E-01
846.70	2.1997E-01
846.87	2.1289E-01
847.04	2.1953E-01
847.21	2.1879E-01
847.38	2.1843E-01
847.55	2.1748E-01
847.73	2.1304E-01
847.90	2.1470E-01
848.07	2.1043E-01
848.24	2.1149E-01
848.41	2.0880E-01
848.58	2.2097E-01
848.75	2.1080E-01
848.92	2.1732E-01
849.09	2.1076E-01
849.26	2.0840E-01
849.43	2.0526E-01
849.60	2.0834E-01
849.77	2.1148E-01
849.94	1.9579E-01
850.12	2.1084E-01
850.29	2.0815E-01
850.46	2.0523E-01
850.63	2.0273E-01
850.80	2.0575E-01
850.97	2.0463E-01
851.14	1.9875E-01
851.31	1.9404E-01
851.48	1.9879E-01
851.65	2.0014E-01
851.82	2.0379E-01
851.99	2.0163E-01
852.16	1.9079E-01
852.33	1.9765E-01
852.50	1.9428E-01
852.67	1.9502E-01
852.84	1.9619E-01
853.01	1.9279E-01
853.18	1.9540E-01
853.35	1.8925E-01
853.52	1.9917E-01
853.69	1.9207E-01
853.86	1.8637E-01
854.03	1.8556E-01
854.21	1.9288E-01
854.38	1.9009E-01
854.55	1.9278E-01
854.72	1.9374E-01
854.89	1.8568E-01
855.06	1.8094E-01
855.23	1.8874E-01
855.40	1.9465E-01
855.57	1.8476E-01
855.74	1.8734E-01
855.91	1.8983E-01
856.08	1.8523E-01
856.25	1.9025E-01
856.42	1.8854E-01
856.59	1.8832E-01
856.76	1.9029E-01
856.93	1.8980E-01
857.10	1.8903E-01
857.27	1.9622E-01
857.44	1.9188E-01
857.61	1.9222E-01
857.77	1.8726E-01
857.94	1.8742E-01
858.11	1.8653E-01
858.28	1.9549E-01
858.45	1.8633E-01
858.62	1.9138E-01
858.79	1.8843E-01
858.96	1.8817E-01
859.13	1.8842E-01
859.30	1.9224E-01
859.47	1.8629E-01
859.64	1.8048E-01
859.81	1.9171E-01
859.98	1.9151E-01
860.15	1.8765E-01
860.32	1.8459E-01
860.49	1.9702E-01
860.66	1.8893E-01
860.83	1.8971E-01
861.00	1.8788E-01
861.17	1.8810E-01
861.34	1.8838E-01
861.51	1.7800E-01
861.68	1.8870E-01
861.84	1.8627E-01
862.01	1.8137E-01
862.18	1.8277E-01
862.35	1.8591E-01
862.52	1.8611E-01
862.69	1.8269E-01
862.86	1.8508E-01
863.03	1.8690E-01
863.20	1.8420E-01
863.37	1.8459E-01
863.54	1.7877E-01
863.71	1.7797E-01
863.88	1.8103E-01
864.05	1.7977E-01
864.21	1.8291E-01
864.38	1.7474E-01
864.55	1.7172E-01
864.72	1.8206E-01
864.89	1.7551E-01
865.06	1.7939E-01
865.23	1.7319E-01
865.40	1.6813E-01
865.57	1.7771E-01
865.74	1.7272E-01
865.90	1.7295E-01
866.07	1.7166E-01
866.24	1.6368E-01
866.41	1.6144E-01
866.58	1.6313E-01
866.75	1.6308E-01
866.92	1.6352E-01
867.09	1.6302E-01
867.26	1.6339E-01
867.42	1.5734E-01
867.59	1.5328E-01
867.76	1.6295E-01
867.93	1.5832E-01
868.10	1.6052E-01
868.27	1.5076E-01
868.44	1.6045E-01
868.60	1.6284E-01
868.77	1.6090E-01
868.94	1.5846E-01
869.11	1.5743E-01
869.28	1.6296E-01
869.45	1.5145E-01
869.62	1.6055E-01
869.78	1.5732E-01
869.95	1.5167E-01
870.12	1.5493E-01
870.29	1.5871E-01
870.46	1.5933E-01
870.63	1.5360E-01
870.80	1.4867E-01
870.96	1.5321E-01
871.13	1.5130E-01
871.30	1.5678E-01
871.47	1.5683E-01
871.64	1.5667E-01
871.81	1.4351E-01
871.97	1.5989E-01
872.14	1.4705E-01
872.31	1.4517E-01
872.48	1.4989E-01
872.65	1.5602E-01
872.81	1.5038E-01
872.98	1.5773E-01
873.15	1.5450E-01
873.32	1.5441E-01
873.49	1.4969E-01
873.66	1.5336E-01
873.82	1.4984E-01
873.99	1.4630E-01
874.16	1.5184E-01
874.33	1.4773E-01
874.50	1.5275E-01
874.66	1.4900E-01
874.83	1.4984E-01
875.00	1.4837E-01
875.17	1.3892E-01
875.34	1.5150E-01
875.50	1.4554E-01
875.67	1.4355E-01
875.84	1.4528E-01
876.01	1.4279E-01
876.17	1.3978E-01
876.34	1.3941E-01
876.51	1.5003E-01
876.68	1.4691E-01
876.85	1.4456E-01
877.01	1.4745E-01
877.18	1.4035E-01
877.35	1.4197E-01
877.52	1.4114E-01
877.68	1.4437E-01
877.85	1.3934E-01
878.02	1.4107E-01
878.19	1.3829E-01
878.35	1.4047E-01
878.52	1.3931E-01
878.69	1.4078E-01
878.86	1.3308E-01
879.02	1.3639E-01
879.19	1.3032E-01
879.36	1.3321E-01
879.53	1.2506E-01
879.69	1.3135E-01
879.86	1.3842E-01
880.03	1.3728E-01
880.20	1.3089E-01
880.36	1.3890E-01
880.53	1.2943E-01
880.70	1.3943E-01
880.87	1.3289E-01
881.03	1.3318E-01
881.20	1.2500E-01
881.37	1.3160E-01
881.54	1.3417E-01
881.70	1.3820E-01
881.87	1.2984E-01
882.04	1.3035E-01
882.20	1.3079E-01
882.37	1.2453E-01
882.54	1.3295E-01
882.71	1.3249E-01
882.87	1.3719E-01
883.04	1.2958E-01
883.21	1.2927E-01
883.37	1.2664E-01
883.54	1.2930E-01
883.71	1.2670E-01
883.87	1.2274E-01
884.04	1.3315E-01
884.21	1.2596E-01
884.38	1.2316E-01
884.54	1.3319E-01
884.71	1.3274E-01
884.88	1.2446E-01
885.04	1.2634E-01
885.21	1.2179E-01
885.38	1.2171E-01
885.54	1.3284E-01
885.71	1.2151E-01
885.88	1.2508E-01
886.04	1.2283E-01
886.21	1.2288E-01
886.38	1.1928E-01
886.54	1.2023E-01
886.71	1.1609E-01
886.88	1.2572E-01
887.04	1.1246E-01
887.21	1.1659E-01
887.38	1.2189E-01
887.54	1.1047E-01
887.71	1.1658E-01
887.88	1.1742E-01
888.04	1.2093E-01
888.21	1.1610E-01
888.38	1.1483E-01
888.54	1.1423E-01
888.71	1.1777E-01
888.87	1.0039E-01
889.04	1.0039E-01
>>>>>End Processed Spectral Data<<<<<
