SpectraSuite Data File
++++++++++++++++++++++++++++++++++++
Date: Wed Jul 25 11:53:36 HST 2007
User: guest
Dark Spectrum Present: Yes
Reference Spectrum Present: No
Number of Sampled Component Spectra: 1
Spectrometers: USB4E01242
Integration Time (usec): 100000 (USB4E01242)
Spectra Averaged: 1 (USB4E01242)
Boxcar Smoothing: 10 (USB4E01242)
Correct for Electrical Dark: No (USB4E01242)
Strobe/Lamp Enabled: No (USB4E01242)
Correct for Detector Non-linearity: No (USB4E01242)
Correct for Stray Light: No (USB4E01242)
Number of Pixels in Processed Spectrum: 3648
>>>>>Begin Processed Spectral Data<<<<<
177.33	0.0000E00
177.55	0.0000E00
177.77	0.0000E00
177.99	0.0000E00
178.21	0.0000E00
178.43	0.0000E00
178.64	0.0000E00
178.86	0.0000E00
179.08	0.0000E00
179.30	0.0000E00
179.52	0.0000E00
179.74	0.0000E00
179.96	0.0000E00
180.18	0.0000E00
180.39	0.0000E00
180.61	0.0000E00
180.83	0.0000E00
181.05	0.0000E00
181.27	0.0000E00
181.49	0.0000E00
181.71	0.0000E00
181.92	0.0000E00
182.14	0.0000E00
182.36	0.0000E00
182.58	0.0000E00
182.80	0.0000E00
183.02	0.0000E00
183.23	0.0000E00
183.45	0.0000E00
183.67	0.0000E00
183.89	0.0000E00
184.11	0.0000E00
184.33	0.0000E00
184.55	0.0000E00
184.76	0.0000E00
184.98	0.0000E00
185.20	0.0000E00
185.42	0.0000E00
185.64	0.0000E00
185.86	0.0000E00
186.07	0.0000E00
186.29	0.0000E00
186.51	0.0000E00
186.73	0.0000E00
186.95	0.0000E00
187.17	0.0000E00
187.38	0.0000E00
187.60	0.0000E00
187.82	0.0000E00
188.04	0.0000E00
188.26	0.0000E00
188.47	0.0000E00
188.69	0.0000E00
188.91	0.0000E00
189.13	0.0000E00
189.35	0.0000E00
189.57	0.0000E00
189.78	0.0000E00
190.00	0.0000E00
190.22	0.0000E00
190.44	0.0000E00
190.66	0.0000E00
190.87	0.0000E00
191.09	0.0000E00
191.31	0.0000E00
191.53	0.0000E00
191.75	0.0000E00
191.97	0.0000E00
192.18	0.0000E00
192.40	0.0000E00
192.62	0.0000E00
192.84	0.0000E00
193.06	0.0000E00
193.27	0.0000E00
193.49	0.0000E00
193.71	0.0000E00
193.93	0.0000E00
194.15	0.0000E00
194.36	0.0000E00
194.58	0.0000E00
194.80	0.0000E00
195.02	0.0000E00
195.23	0.0000E00
195.45	0.0000E00
195.67	0.0000E00
195.89	0.0000E00
196.11	0.0000E00
196.32	0.0000E00
196.54	0.0000E00
196.76	0.0000E00
196.98	0.0000E00
197.20	0.0000E00
197.41	0.0000E00
197.63	0.0000E00
197.85	0.0000E00
198.07	0.0000E00
198.28	0.0000E00
198.50	0.0000E00
198.72	0.0000E00
198.94	0.0000E00
199.16	0.0000E00
199.37	0.0000E00
199.59	0.0000E00
199.81	0.0000E00
200.03	0.0000E00
200.24	0.0000E00
200.46	0.0000E00
200.68	0.0000E00
200.90	0.0000E00
201.11	0.0000E00
201.33	0.0000E00
201.55	0.0000E00
201.77	0.0000E00
201.98	0.0000E00
202.20	0.0000E00
202.42	0.0000E00
202.64	0.0000E00
202.86	0.0000E00
203.07	0.0000E00
203.29	0.0000E00
203.51	0.0000E00
203.73	0.0000E00
203.94	0.0000E00
204.16	0.0000E00
204.38	0.0000E00
204.60	0.0000E00
204.81	0.0000E00
205.03	0.0000E00
205.25	0.0000E00
205.46	0.0000E00
205.68	0.0000E00
205.90	0.0000E00
206.12	0.0000E00
206.33	0.0000E00
206.55	0.0000E00
206.77	0.0000E00
206.99	0.0000E00
207.20	0.0000E00
207.42	0.0000E00
207.64	0.0000E00
207.86	0.0000E00
208.07	0.0000E00
208.29	0.0000E00
208.51	0.0000E00
208.72	0.0000E00
208.94	0.0000E00
209.16	0.0000E00
209.38	0.0000E00
209.59	0.0000E00
209.81	0.0000E00
210.03	0.0000E00
210.25	0.0000E00
210.46	0.0000E00
210.68	0.0000E00
210.90	0.0000E00
211.11	0.0000E00
211.33	0.0000E00
211.55	0.0000E00
211.77	0.0000E00
211.98	0.0000E00
212.20	0.0000E00
212.42	0.0000E00
212.63	0.0000E00
212.85	0.0000E00
213.07	0.0000E00
213.29	0.0000E00
213.50	0.0000E00
213.72	0.0000E00
213.94	0.0000E00
214.15	0.0000E00
214.37	0.0000E00
214.59	0.0000E00
214.80	0.0000E00
215.02	0.0000E00
215.24	0.0000E00
215.45	0.0000E00
215.67	0.0000E00
215.89	0.0000E00
216.11	0.0000E00
216.32	0.0000E00
216.54	0.0000E00
216.76	0.0000E00
216.97	0.0000E00
217.19	0.0000E00
217.41	0.0000E00
217.62	0.0000E00
217.84	0.0000E00
218.06	0.0000E00
218.27	0.0000E00
218.49	0.0000E00
218.71	0.0000E00
218.92	0.0000E00
219.14	0.0000E00
219.36	0.0000E00
219.57	0.0000E00
219.79	0.0000E00
220.01	0.0000E00
220.22	0.0000E00
220.44	0.0000E00
220.66	0.0000E00
220.88	0.0000E00
221.09	0.0000E00
221.31	0.0000E00
221.53	0.0000E00
221.74	0.0000E00
221.96	0.0000E00
222.17	0.0000E00
222.39	0.0000E00
222.61	0.0000E00
222.82	0.0000E00
223.04	0.0000E00
223.26	0.0000E00
223.47	0.0000E00
223.69	0.0000E00
223.91	0.0000E00
224.12	0.0000E00
224.34	0.0000E00
224.56	0.0000E00
224.77	0.0000E00
224.99	0.0000E00
225.21	0.0000E00
225.42	0.0000E00
225.64	0.0000E00
225.86	0.0000E00
226.07	0.0000E00
226.29	0.0000E00
226.50	0.0000E00
226.72	0.0000E00
226.94	0.0000E00
227.15	0.0000E00
227.37	0.0000E00
227.59	0.0000E00
227.80	0.0000E00
228.02	0.0000E00
228.24	0.0000E00
228.45	0.0000E00
228.67	0.0000E00
228.88	0.0000E00
229.10	0.0000E00
229.32	0.0000E00
229.53	0.0000E00
229.75	0.0000E00
229.97	0.0000E00
230.18	0.0000E00
230.40	0.0000E00
230.61	0.0000E00
230.83	0.0000E00
231.05	0.0000E00
231.26	0.0000E00
231.48	0.0000E00
231.70	0.0000E00
231.91	0.0000E00
232.13	0.0000E00
232.34	0.0000E00
232.56	0.0000E00
232.78	0.0000E00
232.99	0.0000E00
233.21	0.0000E00
233.42	0.0000E00
233.64	0.0000E00
233.86	0.0000E00
234.07	0.0000E00
234.29	0.0000E00
234.50	0.0000E00
234.72	0.0000E00
234.94	0.0000E00
235.15	0.0000E00
235.37	0.0000E00
235.58	0.0000E00
235.80	0.0000E00
236.02	0.0000E00
236.23	0.0000E00
236.45	0.0000E00
236.66	0.0000E00
236.88	0.0000E00
237.10	0.0000E00
237.31	0.0000E00
237.53	0.0000E00
237.74	0.0000E00
237.96	0.0000E00
238.17	0.0000E00
238.39	0.0000E00
238.61	0.0000E00
238.82	0.0000E00
239.04	0.0000E00
239.25	0.0000E00
239.47	0.0000E00
239.69	0.0000E00
239.90	0.0000E00
240.12	0.0000E00
240.33	0.0000E00
240.55	0.0000E00
240.76	0.0000E00
240.98	0.0000E00
241.20	0.0000E00
241.41	0.0000E00
241.63	0.0000E00
241.84	0.0000E00
242.06	0.0000E00
242.27	0.0000E00
242.49	0.0000E00
242.70	0.0000E00
242.92	0.0000E00
243.14	0.0000E00
243.35	0.0000E00
243.57	0.0000E00
243.78	0.0000E00
244.00	0.0000E00
244.21	0.0000E00
244.43	0.0000E00
244.64	0.0000E00
244.86	0.0000E00
245.08	0.0000E00
245.29	0.0000E00
245.51	0.0000E00
245.72	0.0000E00
245.94	0.0000E00
246.15	0.0000E00
246.37	0.0000E00
246.58	0.0000E00
246.80	0.0000E00
247.01	0.0000E00
247.23	0.0000E00
247.45	0.0000E00
247.66	0.0000E00
247.88	0.0000E00
248.09	0.0000E00
248.31	0.0000E00
248.52	0.0000E00
248.74	0.0000E00
248.95	0.0000E00
249.17	0.0000E00
249.38	0.0000E00
249.60	0.0000E00
249.81	0.0000E00
250.03	0.0000E00
250.24	0.0000E00
250.46	0.0000E00
250.67	0.0000E00
250.89	0.0000E00
251.10	0.0000E00
251.32	0.0000E00
251.53	0.0000E00
251.75	0.0000E00
251.97	0.0000E00
252.18	0.0000E00
252.40	0.0000E00
252.61	0.0000E00
252.83	0.0000E00
253.04	0.0000E00
253.26	0.0000E00
253.47	0.0000E00
253.69	0.0000E00
253.90	0.0000E00
254.12	0.0000E00
254.33	0.0000E00
254.55	0.0000E00
254.76	0.0000E00
254.98	0.0000E00
255.19	0.0000E00
255.41	0.0000E00
255.62	0.0000E00
255.84	0.0000E00
256.05	0.0000E00
256.27	0.0000E00
256.48	0.0000E00
256.70	0.0000E00
256.91	0.0000E00
257.13	0.0000E00
257.34	0.0000E00
257.55	0.0000E00
257.77	0.0000E00
257.98	0.0000E00
258.20	0.0000E00
258.41	0.0000E00
258.63	0.0000E00
258.84	0.0000E00
259.06	0.0000E00
259.27	0.0000E00
259.49	0.0000E00
259.70	0.0000E00
259.92	0.0000E00
260.13	0.0000E00
260.35	0.0000E00
260.56	0.0000E00
260.78	0.0000E00
260.99	0.0000E00
261.21	0.0000E00
261.42	0.0000E00
261.63	0.0000E00
261.85	0.0000E00
262.06	0.0000E00
262.28	0.0000E00
262.49	0.0000E00
262.71	0.0000E00
262.92	0.0000E00
263.14	0.0000E00
263.35	0.0000E00
263.57	0.0000E00
263.78	0.0000E00
264.00	0.0000E00
264.21	0.0000E00
264.42	0.0000E00
264.64	0.0000E00
264.85	0.0000E00
265.07	0.0000E00
265.28	0.0000E00
265.50	0.0000E00
265.71	0.0000E00
265.93	0.0000E00
266.14	0.0000E00
266.35	0.0000E00
266.57	0.0000E00
266.78	0.0000E00
267.00	0.0000E00
267.21	0.0000E00
267.43	0.0000E00
267.64	0.0000E00
267.85	0.0000E00
268.07	0.0000E00
268.28	0.0000E00
268.50	0.0000E00
268.71	0.0000E00
268.93	0.0000E00
269.14	0.0000E00
269.35	0.0000E00
269.57	0.0000E00
269.78	0.0000E00
270.00	0.0000E00
270.21	0.0000E00
270.43	0.0000E00
270.64	0.0000E00
270.85	0.0000E00
271.07	0.0000E00
271.28	0.0000E00
271.50	0.0000E00
271.71	0.0000E00
271.92	0.0000E00
272.14	0.0000E00
272.35	0.0000E00
272.57	0.0000E00
272.78	0.0000E00
272.99	0.0000E00
273.21	0.0000E00
273.42	0.0000E00
273.64	0.0000E00
273.85	0.0000E00
274.07	0.0000E00
274.28	0.0000E00
274.49	0.0000E00
274.71	0.0000E00
274.92	0.0000E00
275.13	0.0000E00
275.35	0.0000E00
275.56	0.0000E00
275.78	0.0000E00
275.99	0.0000E00
276.20	0.0000E00
276.42	0.0000E00
276.63	0.0000E00
276.85	0.0000E00
277.06	0.0000E00
277.27	0.0000E00
277.49	0.0000E00
277.70	0.0000E00
277.92	0.0000E00
278.13	0.0000E00
278.34	0.0000E00
278.56	0.0000E00
278.77	0.0000E00
278.98	0.0000E00
279.20	0.0000E00
279.41	0.0000E00
279.63	0.0000E00
279.84	0.0000E00
280.05	0.0000E00
280.27	0.0000E00
280.48	0.0000E00
280.69	0.0000E00
280.91	0.0000E00
281.12	0.0000E00
281.33	0.0000E00
281.55	0.0000E00
281.76	0.0000E00
281.98	0.0000E00
282.19	0.0000E00
282.40	0.0000E00
282.62	0.0000E00
282.83	0.0000E00
283.04	0.0000E00
283.26	0.0000E00
283.47	0.0000E00
283.68	0.0000E00
283.90	0.0000E00
284.11	0.0000E00
284.32	0.0000E00
284.54	0.0000E00
284.75	0.0000E00
284.96	0.0000E00
285.18	0.0000E00
285.39	0.0000E00
285.60	0.0000E00
285.82	0.0000E00
286.03	0.0000E00
286.24	0.0000E00
286.46	0.0000E00
286.67	0.0000E00
286.88	0.0000E00
287.10	0.0000E00
287.31	0.0000E00
287.52	0.0000E00
287.74	0.0000E00
287.95	0.0000E00
288.16	0.0000E00
288.38	0.0000E00
288.59	0.0000E00
288.80	0.0000E00
289.02	0.0000E00
289.23	0.0000E00
289.44	0.0000E00
289.66	0.0000E00
289.87	0.0000E00
290.08	0.0000E00
290.30	0.0000E00
290.51	0.0000E00
290.72	0.0000E00
290.94	0.0000E00
291.15	0.0000E00
291.36	0.0000E00
291.57	0.0000E00
291.79	0.0000E00
292.00	0.0000E00
292.21	0.0000E00
292.43	0.0000E00
292.64	0.0000E00
292.85	0.0000E00
293.07	0.0000E00
293.28	0.0000E00
293.49	0.0000E00
293.70	0.0000E00
293.92	0.0000E00
294.13	0.0000E00
294.34	0.0000E00
294.56	0.0000E00
294.77	0.0000E00
294.98	0.0000E00
295.20	0.0000E00
295.41	0.0000E00
295.62	0.0000E00
295.83	0.0000E00
296.05	0.0000E00
296.26	0.0000E00
296.47	0.0000E00
296.69	0.0000E00
296.90	0.0000E00
297.11	0.0000E00
297.32	0.0000E00
297.54	0.0000E00
297.75	0.0000E00
297.96	0.0000E00
298.17	0.0000E00
298.39	0.0000E00
298.60	0.0000E00
298.81	0.0000E00
299.03	0.0000E00
299.24	0.0000E00
299.45	0.0000E00
299.66	0.0000E00
299.88	0.0000E00
300.09	4.1355E-02
300.30	3.8052E-02
300.51	4.8176E-02
300.73	3.8349E-02
300.94	4.0313E-02
301.15	4.4728E-02
301.36	3.5319E-02
301.58	3.9392E-02
301.79	5.4734E-02
302.00	4.0234E-02
302.21	3.7391E-02
302.43	4.7274E-02
302.64	3.7811E-02
302.85	4.6633E-02
303.06	3.5781E-02
303.28	4.3807E-02
303.49	3.6720E-02
303.70	4.9143E-02
303.91	3.7758E-02
304.13	3.5734E-02
304.34	4.0718E-02
304.55	4.9845E-02
304.76	3.3084E-02
304.98	3.7019E-02
305.19	4.6545E-02
305.40	3.5510E-02
305.61	4.4284E-02
305.82	3.8292E-02
306.04	4.6710E-02
306.25	3.5398E-02
306.46	5.0146E-02
306.67	3.8655E-02
306.89	4.0395E-02
307.10	4.8047E-02
307.31	4.6728E-02
307.52	4.3483E-02
307.74	5.2069E-02
307.95	5.1652E-02
308.16	3.5489E-02
308.37	4.6290E-02
308.58	4.3538E-02
308.80	5.1258E-02
309.01	4.8667E-02
309.22	3.7882E-02
309.43	4.2806E-02
309.64	5.1524E-02
309.86	5.7751E-02
310.07	4.8676E-02
310.28	5.2590E-02
310.49	5.3904E-02
310.70	4.4955E-02
310.92	5.5025E-02
311.13	5.0935E-02
311.34	5.2735E-02
311.55	5.3813E-02
311.76	5.2507E-02
311.98	6.6072E-02
312.19	5.3952E-02
312.40	4.9656E-02
312.61	5.3468E-02
312.82	5.9984E-02
313.04	5.2647E-02
313.25	6.0874E-02
313.46	5.3286E-02
313.67	5.3742E-02
313.88	5.6858E-02
314.10	5.4457E-02
314.31	5.4972E-02
314.52	5.6505E-02
314.73	5.9380E-02
314.94	6.6965E-02
315.16	6.8176E-02
315.37	7.5488E-02
315.58	5.9628E-02
315.79	6.7083E-02
316.00	6.9535E-02
316.21	7.4258E-02
316.43	5.6087E-02
316.64	6.1302E-02
316.85	5.9245E-02
317.06	6.7280E-02
317.27	7.2981E-02
317.48	6.4350E-02
317.70	6.7722E-02
317.91	6.6405E-02
318.12	7.5473E-02
318.33	6.3306E-02
318.54	6.6731E-02
318.75	6.8777E-02
318.97	7.7115E-02
319.18	6.9031E-02
319.39	6.6223E-02
319.60	6.8814E-02
319.81	7.4835E-02
320.02	6.6981E-02
320.24	6.8598E-02
320.45	7.3199E-02
320.66	6.2554E-02
320.87	7.0521E-02
321.08	7.8707E-02
321.29	7.7211E-02
321.50	7.0004E-02
321.72	6.5590E-02
321.93	7.8325E-02
322.14	6.8649E-02
322.35	8.0003E-02
322.56	8.0871E-02
322.77	8.4978E-02
322.98	7.2753E-02
323.20	8.4198E-02
323.41	6.9618E-02
323.62	6.9542E-02
323.83	7.9076E-02
324.04	7.0924E-02
324.25	7.0544E-02
324.46	7.6117E-02
324.67	7.7970E-02
324.89	7.5100E-02
325.10	7.3666E-02
325.31	8.6547E-02
325.52	8.1009E-02
325.73	7.4140E-02
325.94	7.7999E-02
326.15	7.1442E-02
326.36	8.9537E-02
326.58	9.3561E-02
326.79	9.0452E-02
327.00	7.0306E-02
327.21	9.0068E-02
327.42	9.0303E-02
327.63	9.0258E-02
327.84	8.6840E-02
328.05	9.3877E-02
328.26	7.4406E-02
328.48	8.6898E-02
328.69	9.2205E-02
328.90	8.6616E-02
329.11	8.7432E-02
329.32	8.7756E-02
329.53	8.2251E-02
329.74	8.8025E-02
329.95	9.5504E-02
330.16	9.2895E-02
330.37	8.6887E-02
330.59	1.0568E-01
330.80	9.5356E-02
331.01	9.6664E-02
331.22	9.4884E-02
331.43	8.5789E-02
331.64	8.5272E-02
331.85	1.0168E-01
332.06	9.8367E-02
332.27	8.5467E-02
332.48	9.8325E-02
332.69	1.0299E-01
332.91	9.6949E-02
333.12	9.5879E-02
333.33	1.0872E-01
333.54	8.7307E-02
333.75	8.2729E-02
333.96	8.7699E-02
334.17	8.5296E-02
334.38	8.6392E-02
334.59	9.2507E-02
334.80	9.4065E-02
335.01	9.1253E-02
335.22	8.4099E-02
335.43	8.1850E-02
335.64	8.5356E-02
335.86	8.8660E-02
336.07	8.7623E-02
336.28	7.5374E-02
336.49	8.9547E-02
336.70	7.9688E-02
336.91	7.9533E-02
337.12	7.6998E-02
337.33	9.2415E-02
337.54	8.1405E-02
337.75	7.9792E-02
337.96	9.1065E-02
338.17	9.0849E-02
338.38	7.9298E-02
338.59	9.3059E-02
338.80	7.6878E-02
339.01	9.5393E-02
339.22	9.3739E-02
339.43	9.4610E-02
339.65	8.8744E-02
339.86	8.3994E-02
340.07	8.2708E-02
340.28	9.0973E-02
340.49	9.0664E-02
340.70	9.1971E-02
340.91	8.1614E-02
341.12	7.7423E-02
341.33	8.8506E-02
341.54	9.3465E-02
341.75	8.4269E-02
341.96	8.7801E-02
342.17	9.0252E-02
342.38	8.2963E-02
342.59	8.6095E-02
342.80	7.7416E-02
343.01	8.3776E-02
343.22	8.2371E-02
343.43	7.9109E-02
343.64	7.5178E-02
343.85	8.3907E-02
344.06	7.0258E-02
344.27	8.0877E-02
344.48	8.9213E-02
344.69	8.1155E-02
344.90	8.2773E-02
345.11	7.8218E-02
345.32	7.7222E-02
345.53	6.8552E-02
345.74	8.3955E-02
345.95	7.0626E-02
346.16	7.8947E-02
346.37	7.8520E-02
346.58	7.8673E-02
346.79	7.2535E-02
347.00	8.3097E-02
347.21	8.4221E-02
347.42	7.4954E-02
347.63	6.9470E-02
347.84	7.7794E-02
348.05	8.2698E-02
348.26	7.6284E-02
348.47	7.9621E-02
348.68	7.8674E-02
348.89	6.7725E-02
349.10	7.6415E-02
349.31	7.9681E-02
349.52	7.4286E-02
349.73	7.6865E-02
349.94	7.7371E-02
350.15	7.1493E-02
350.36	8.6571E-02
350.57	8.3208E-02
350.78	8.4840E-02
350.99	8.5134E-02
351.20	7.9392E-02
351.41	8.5404E-02
351.62	8.0617E-02
351.83	8.2459E-02
352.04	8.1675E-02
352.25	8.7771E-02
352.46	8.3221E-02
352.67	7.9027E-02
352.88	9.2788E-02
353.09	7.0431E-02
353.30	8.1360E-02
353.51	8.2927E-02
353.72	9.1391E-02
353.93	8.1476E-02
354.14	7.7021E-02
354.35	9.1037E-02
354.56	8.1523E-02
354.77	9.4425E-02
354.98	7.4017E-02
355.19	7.9741E-02
355.39	8.1038E-02
355.60	7.7710E-02
355.81	8.2089E-02
356.02	8.5244E-02
356.23	7.2780E-02
356.44	6.9670E-02
356.65	8.3688E-02
356.86	7.6544E-02
357.07	7.5598E-02
357.28	8.3817E-02
357.49	7.9661E-02
357.70	8.3746E-02
357.91	7.3392E-02
358.12	7.3497E-02
358.33	8.2473E-02
358.54	8.5206E-02
358.75	7.9185E-02
358.96	8.6462E-02
359.16	7.3254E-02
359.37	9.0347E-02
359.58	8.5961E-02
359.79	8.2830E-02
360.00	8.3622E-02
360.21	8.6079E-02
360.42	8.3934E-02
360.63	1.0368E-01
360.84	9.4292E-02
361.05	7.9062E-02
361.26	8.9404E-02
361.47	9.7911E-02
361.68	8.8834E-02
361.88	9.4279E-02
362.09	8.7811E-02
362.30	9.4867E-02
362.51	9.0896E-02
362.72	1.0268E-01
362.93	9.3519E-02
363.14	9.6634E-02
363.35	9.3198E-02
363.56	9.2000E-02
363.77	1.0423E-01
363.98	1.0054E-01
364.18	1.0740E-01
364.39	1.0525E-01
364.60	9.9579E-02
364.81	1.0212E-01
365.02	1.0450E-01
365.23	1.0691E-01
365.44	1.0666E-01
365.65	1.0530E-01
365.86	9.5228E-02
366.07	1.1399E-01
366.27	1.0757E-01
366.48	1.1212E-01
366.69	1.0778E-01
366.90	1.1564E-01
367.11	1.1254E-01
367.32	1.1369E-01
367.53	1.0747E-01
367.74	1.0361E-01
367.95	1.0381E-01
368.15	1.0700E-01
368.36	1.1219E-01
368.57	9.9198E-02
368.78	1.1833E-01
368.99	1.0635E-01
369.20	1.0551E-01
369.41	1.1214E-01
369.62	1.0748E-01
369.82	1.1686E-01
370.03	1.0806E-01
370.24	1.1105E-01
370.45	1.0608E-01
370.66	1.0031E-01
370.87	9.9607E-02
371.08	1.0178E-01
371.28	1.0111E-01
371.49	1.0186E-01
371.70	1.0133E-01
371.91	1.0161E-01
372.12	9.5593E-02
372.33	9.5729E-02
372.54	1.0089E-01
372.74	9.9452E-02
372.95	8.7779E-02
373.16	1.0131E-01
373.37	1.0348E-01
373.58	8.8206E-02
373.79	1.0003E-01
374.00	9.5983E-02
374.20	1.0600E-01
374.41	1.0309E-01
374.62	9.7170E-02
374.83	9.6832E-02
375.04	9.9275E-02
375.25	1.0121E-01
375.45	8.6677E-02
375.66	1.0395E-01
375.87	1.0231E-01
376.08	1.0547E-01
376.29	1.0432E-01
376.50	1.0267E-01
376.70	1.0092E-01
376.91	1.0662E-01
377.12	1.0748E-01
377.33	9.6113E-02
377.54	9.8905E-02
377.75	1.0786E-01
377.95	1.0120E-01
378.16	1.0422E-01
378.37	9.7360E-02
378.58	1.0698E-01
378.79	9.3356E-02
379.00	1.0766E-01
379.20	9.7707E-02
379.41	1.0159E-01
379.62	1.0312E-01
379.83	9.6716E-02
380.04	9.8622E-02
380.24	9.3406E-02
380.45	8.6774E-02
380.66	8.9407E-02
380.87	9.4164E-02
381.08	9.4734E-02
381.28	8.6492E-02
381.49	9.3071E-02
381.70	8.5232E-02
381.91	8.7943E-02
382.12	9.2158E-02
382.32	8.5395E-02
382.53	9.1029E-02
382.74	8.2998E-02
382.95	8.6380E-02
383.16	8.9284E-02
383.36	7.7559E-02
383.57	8.9170E-02
383.78	9.3197E-02
383.99	8.5092E-02
384.20	8.8879E-02
384.40	9.0157E-02
384.61	9.6957E-02
384.82	9.9725E-02
385.03	9.3812E-02
385.23	9.6652E-02
385.44	9.7567E-02
385.65	1.0146E-01
385.86	9.2735E-02
386.07	1.1054E-01
386.27	9.0008E-02
386.48	9.8179E-02
386.69	1.0421E-01
386.90	8.6733E-02
387.10	9.7775E-02
387.31	1.0582E-01
387.52	9.9448E-02
387.73	1.0437E-01
387.94	1.0940E-01
388.14	9.6750E-02
388.35	1.0250E-01
388.56	1.1798E-01
388.77	1.1085E-01
388.97	1.1158E-01
389.18	1.1785E-01
389.39	1.0798E-01
389.60	1.0983E-01
389.80	1.1677E-01
390.01	1.1317E-01
390.22	1.1234E-01
390.43	1.0128E-01
390.63	1.0486E-01
390.84	1.0485E-01
391.05	1.1655E-01
391.26	1.0598E-01
391.46	1.0415E-01
391.67	1.0394E-01
391.88	9.5170E-02
392.09	9.4428E-02
392.29	1.0545E-01
392.50	9.7111E-02
392.71	1.0040E-01
392.92	1.0222E-01
393.12	9.9659E-02
393.33	1.0436E-01
393.54	9.6181E-02
393.74	9.0585E-02
393.95	9.5207E-02
394.16	1.0375E-01
394.37	9.7283E-02
394.57	9.7934E-02
394.78	1.0399E-01
394.99	9.9683E-02
395.19	9.8601E-02
395.40	9.8375E-02
395.61	9.8635E-02
395.82	1.0735E-01
396.02	1.0173E-01
396.23	1.0836E-01
396.44	1.1095E-01
396.65	1.0702E-01
396.85	1.1626E-01
397.06	1.1365E-01
397.27	1.1774E-01
397.47	1.2365E-01
397.68	1.1948E-01
397.89	1.1793E-01
398.09	1.1730E-01
398.30	1.2480E-01
398.51	1.1944E-01
398.72	1.2794E-01
398.92	1.3606E-01
399.13	1.3746E-01
399.34	1.4332E-01
399.54	1.4482E-01
399.75	1.4108E-01
399.96	1.3493E-01
400.16	1.3489E-01
400.37	1.4300E-01
400.58	1.4209E-01
400.78	1.4428E-01
400.99	1.4096E-01
401.20	1.4819E-01
401.41	1.4587E-01
401.61	1.3930E-01
401.82	1.4548E-01
402.03	1.3974E-01
402.23	1.3897E-01
402.44	1.4719E-01
402.65	1.4148E-01
402.85	1.4240E-01
403.06	1.4198E-01
403.27	1.4427E-01
403.47	1.4242E-01
403.68	1.3705E-01
403.89	1.4383E-01
404.09	1.3912E-01
404.30	1.3355E-01
404.51	1.4458E-01
404.71	1.4283E-01
404.92	1.4802E-01
405.13	1.3114E-01
405.33	1.3650E-01
405.54	1.3729E-01
405.75	1.3988E-01
405.95	1.3816E-01
406.16	1.2846E-01
406.37	1.3869E-01
406.57	1.3944E-01
406.78	1.4275E-01
406.99	1.4167E-01
407.19	1.4556E-01
407.40	1.4999E-01
407.60	1.4694E-01
407.81	1.4521E-01
408.02	1.3882E-01
408.22	1.4065E-01
408.43	1.4878E-01
408.64	1.4589E-01
408.84	1.4443E-01
409.05	1.3728E-01
409.26	1.4906E-01
409.46	1.5212E-01
409.67	1.4484E-01
409.87	1.4954E-01
410.08	1.4682E-01
410.29	1.5497E-01
410.49	1.4001E-01
410.70	1.5097E-01
410.91	1.4813E-01
411.11	1.5400E-01
411.32	1.5011E-01
411.52	1.4154E-01
411.73	1.5353E-01
411.94	1.5231E-01
412.14	1.5521E-01
412.35	1.4902E-01
412.56	1.5605E-01
412.76	1.5506E-01
412.97	1.4967E-01
413.17	1.5335E-01
413.38	1.5828E-01
413.59	1.4857E-01
413.79	1.5118E-01
414.00	1.5417E-01
414.20	1.5686E-01
414.41	1.4712E-01
414.62	1.5510E-01
414.82	1.5000E-01
415.03	1.4427E-01
415.23	1.5404E-01
415.44	1.4541E-01
415.65	1.5205E-01
415.85	1.4559E-01
416.06	1.5333E-01
416.26	1.4972E-01
416.47	1.5114E-01
416.68	1.5580E-01
416.88	1.5800E-01
417.09	1.3927E-01
417.29	1.4892E-01
417.50	1.5270E-01
417.71	1.5066E-01
417.91	1.4890E-01
418.12	1.4738E-01
418.32	1.5514E-01
418.53	1.5401E-01
418.73	1.4762E-01
418.94	1.4820E-01
419.15	1.4728E-01
419.35	1.5826E-01
419.56	1.5265E-01
419.76	1.4453E-01
419.97	1.5879E-01
420.17	1.5370E-01
420.38	1.4176E-01
420.59	1.5739E-01
420.79	1.5800E-01
421.00	1.5107E-01
421.20	1.4127E-01
421.41	1.4915E-01
421.61	1.4671E-01
421.82	1.5093E-01
422.02	1.4850E-01
422.23	1.3647E-01
422.44	1.5554E-01
422.64	1.4531E-01
422.85	1.4759E-01
423.05	1.4804E-01
423.26	1.4904E-01
423.46	1.4725E-01
423.67	1.4398E-01
423.87	1.4480E-01
424.08	1.4284E-01
424.29	1.4270E-01
424.49	1.4975E-01
424.70	1.3854E-01
424.90	1.4683E-01
425.11	1.4764E-01
425.31	1.4587E-01
425.52	1.4954E-01
425.72	1.4234E-01
425.93	1.4504E-01
426.13	1.4058E-01
426.34	1.4177E-01
426.54	1.4175E-01
426.75	1.4255E-01
426.95	1.4202E-01
427.16	1.4251E-01
427.36	1.4130E-01
427.57	1.3636E-01
427.78	1.3413E-01
427.98	1.3445E-01
428.19	1.3618E-01
428.39	1.3060E-01
428.60	1.3137E-01
428.80	1.3201E-01
429.01	1.3627E-01
429.21	1.2557E-01
429.42	1.4085E-01
429.62	1.3855E-01
429.83	1.3367E-01
430.03	1.2781E-01
430.24	1.3766E-01
430.44	1.2944E-01
430.65	1.3587E-01
430.85	1.3771E-01
431.06	1.3234E-01
431.26	1.4131E-01
431.47	1.3107E-01
431.67	1.4755E-01
431.88	1.4321E-01
432.08	1.4667E-01
432.29	1.4716E-01
432.49	1.4175E-01
432.70	1.4150E-01
432.90	1.5162E-01
433.11	1.5063E-01
433.31	1.3843E-01
433.52	1.4786E-01
433.72	1.4449E-01
433.93	1.4765E-01
434.13	1.4677E-01
434.34	1.5648E-01
434.54	1.4490E-01
434.74	1.4872E-01
434.95	1.5055E-01
435.15	1.4755E-01
435.36	1.5032E-01
435.56	1.4509E-01
435.77	1.5182E-01
435.97	1.4448E-01
436.18	1.6216E-01
436.38	1.5325E-01
436.59	1.4862E-01
436.79	1.5604E-01
437.00	1.5420E-01
437.20	1.5104E-01
437.41	1.4956E-01
437.61	1.5313E-01
437.81	1.5274E-01
438.02	1.5283E-01
438.22	1.5621E-01
438.43	1.4843E-01
438.63	1.6149E-01
438.84	1.5242E-01
439.04	1.5351E-01
439.25	1.5593E-01
439.45	1.5085E-01
439.66	1.5200E-01
439.86	1.5395E-01
440.06	1.6449E-01
440.27	1.5540E-01
440.47	1.5114E-01
440.68	1.6311E-01
440.88	1.5911E-01
441.09	1.6463E-01
441.29	1.6409E-01
441.49	1.6353E-01
441.70	1.6963E-01
441.90	1.6561E-01
442.11	1.6827E-01
442.31	1.7225E-01
442.52	1.6575E-01
442.72	1.6538E-01
442.92	1.5999E-01
443.13	1.6950E-01
443.33	1.5806E-01
443.54	1.6608E-01
443.74	1.6460E-01
443.95	1.7085E-01
444.15	1.6702E-01
444.35	1.7188E-01
444.56	1.6629E-01
444.76	1.6240E-01
444.97	1.7594E-01
445.17	1.7098E-01
445.37	1.7898E-01
445.58	1.6686E-01
445.78	1.6983E-01
445.99	1.6338E-01
446.19	1.6397E-01
446.39	1.6625E-01
446.60	1.6230E-01
446.80	1.6304E-01
447.01	1.7210E-01
447.21	1.7780E-01
447.41	1.6765E-01
447.62	1.7669E-01
447.82	1.7288E-01
448.03	1.7685E-01
448.23	1.7597E-01
448.43	1.7767E-01
448.64	1.8033E-01
448.84	1.8011E-01
449.05	1.7678E-01
449.25	1.8164E-01
449.45	1.7580E-01
449.66	1.7765E-01
449.86	1.7918E-01
450.07	1.7320E-01
450.27	1.7876E-01
450.47	1.7554E-01
450.68	1.7852E-01
450.88	1.7500E-01
451.08	1.7777E-01
451.29	1.7978E-01
451.49	1.8019E-01
451.70	1.7870E-01
451.90	1.8086E-01
452.10	1.7976E-01
452.31	1.7218E-01
452.51	1.8058E-01
452.71	1.7855E-01
452.92	1.7615E-01
453.12	1.8050E-01
453.32	1.7563E-01
453.53	1.6639E-01
453.73	1.6812E-01
453.93	1.6956E-01
454.14	1.8065E-01
454.34	1.7877E-01
454.55	1.8069E-01
454.75	1.7884E-01
454.95	1.7426E-01
455.16	1.8442E-01
455.36	1.7555E-01
455.56	1.8579E-01
455.77	1.8232E-01
455.97	1.7960E-01
456.17	1.7629E-01
456.38	1.8079E-01
456.58	1.8598E-01
456.78	1.7877E-01
456.99	1.7233E-01
457.19	1.7800E-01
457.39	1.7790E-01
457.60	1.8055E-01
457.80	1.7890E-01
458.00	1.7714E-01
458.21	1.8404E-01
458.41	1.8282E-01
458.61	1.7827E-01
458.82	1.7790E-01
459.02	1.7444E-01
459.22	1.8629E-01
459.43	1.8373E-01
459.63	1.8164E-01
459.83	1.7780E-01
460.03	1.8132E-01
460.24	1.8444E-01
460.44	1.7832E-01
460.64	1.7463E-01
460.85	1.8186E-01
461.05	1.8034E-01
461.25	1.8134E-01
461.46	1.7860E-01
461.66	1.7524E-01
461.86	1.8087E-01
462.07	1.8406E-01
462.27	1.8114E-01
462.47	1.8590E-01
462.67	1.7930E-01
462.88	1.8231E-01
463.08	1.7377E-01
463.28	1.8002E-01
463.49	1.8462E-01
463.69	1.8069E-01
463.89	1.8120E-01
464.09	1.8240E-01
464.30	1.7817E-01
464.50	1.8429E-01
464.70	1.8470E-01
464.91	1.7311E-01
465.11	1.7434E-01
465.31	1.7516E-01
465.51	1.8126E-01
465.72	1.7844E-01
465.92	1.7828E-01
466.12	1.7428E-01
466.33	1.8016E-01
466.53	1.7771E-01
466.73	1.7430E-01
466.93	1.7987E-01
467.14	1.7400E-01
467.34	1.8606E-01
467.54	1.7900E-01
467.74	1.7972E-01
467.95	1.7797E-01
468.15	1.7463E-01
468.35	1.7837E-01
468.55	1.8073E-01
468.76	1.7982E-01
468.96	1.6908E-01
469.16	1.7688E-01
469.37	1.7566E-01
469.57	1.7641E-01
469.77	1.7181E-01
469.97	1.7583E-01
470.18	1.7826E-01
470.38	1.7872E-01
470.58	1.7503E-01
470.78	1.7772E-01
470.99	1.7633E-01
471.19	1.7307E-01
471.39	1.7658E-01
471.59	1.7034E-01
471.79	1.7414E-01
472.00	1.7523E-01
472.20	1.7785E-01
472.40	1.7330E-01
472.60	1.7368E-01
472.81	1.8130E-01
473.01	1.7909E-01
473.21	1.7432E-01
473.41	1.6770E-01
473.62	1.7950E-01
473.82	1.8187E-01
474.02	1.7438E-01
474.22	1.7485E-01
474.42	1.8406E-01
474.63	1.7841E-01
474.83	1.7571E-01
475.03	1.7616E-01
475.23	1.7824E-01
475.44	1.7481E-01
475.64	1.7638E-01
475.84	1.7798E-01
476.04	1.7583E-01
476.24	1.7648E-01
476.45	1.7717E-01
476.65	1.7418E-01
476.85	1.7300E-01
477.05	1.7768E-01
477.25	1.8005E-01
477.46	1.7658E-01
477.66	1.7493E-01
477.86	1.7903E-01
478.06	1.7926E-01
478.26	1.7955E-01
478.47	1.7770E-01
478.67	1.8339E-01
478.87	1.7675E-01
479.07	1.7275E-01
479.27	1.7740E-01
479.47	1.7925E-01
479.68	1.7847E-01
479.88	1.7890E-01
480.08	1.7772E-01
480.28	1.7856E-01
480.48	1.7803E-01
480.69	1.7899E-01
480.89	1.7612E-01
481.09	1.7702E-01
481.29	1.8153E-01
481.49	1.6791E-01
481.69	1.7738E-01
481.90	1.7424E-01
482.10	1.7546E-01
482.30	1.7848E-01
482.50	1.7556E-01
482.70	1.7159E-01
482.90	1.7173E-01
483.11	1.7139E-01
483.31	1.7099E-01
483.51	1.6362E-01
483.71	1.6421E-01
483.91	1.6468E-01
484.11	1.6441E-01
484.32	1.6424E-01
484.52	1.6597E-01
484.72	1.6527E-01
484.92	1.6410E-01
485.12	1.6322E-01
485.32	1.6191E-01
485.52	1.6141E-01
485.73	1.5751E-01
485.93	1.5647E-01
486.13	1.5755E-01
486.33	1.5869E-01
486.53	1.6088E-01
486.73	1.6182E-01
486.93	1.6084E-01
487.14	1.6614E-01
487.34	1.6532E-01
487.54	1.6537E-01
487.74	1.6809E-01
487.94	1.6064E-01
488.14	1.6693E-01
488.34	1.6694E-01
488.54	1.6616E-01
488.75	1.6577E-01
488.95	1.6692E-01
489.15	1.6634E-01
489.35	1.6533E-01
489.55	1.6616E-01
489.75	1.6887E-01
489.95	1.6731E-01
490.15	1.6736E-01
490.36	1.6973E-01
490.56	1.6838E-01
490.76	1.7168E-01
490.96	1.7050E-01
491.16	1.7110E-01
491.36	1.6992E-01
491.56	1.6909E-01
491.76	1.6412E-01
491.96	1.6988E-01
492.17	1.6966E-01
492.37	1.7173E-01
492.57	1.7355E-01
492.77	1.7379E-01
492.97	1.7667E-01
493.17	1.7460E-01
493.37	1.7365E-01
493.57	1.7306E-01
493.77	1.7277E-01
493.97	1.7669E-01
494.17	1.7310E-01
494.38	1.7422E-01
494.58	1.7212E-01
494.78	1.7228E-01
494.98	1.7219E-01
495.18	1.7475E-01
495.38	1.7449E-01
495.58	1.7580E-01
495.78	1.7624E-01
495.98	1.7774E-01
496.18	1.7670E-01
496.38	1.7345E-01
496.58	1.6985E-01
496.78	1.7631E-01
496.99	1.7193E-01
497.19	1.7593E-01
497.39	1.7712E-01
497.59	1.7455E-01
497.79	1.7087E-01
497.99	1.7424E-01
498.19	1.7543E-01
498.39	1.7600E-01
498.59	1.7254E-01
498.79	1.7199E-01
498.99	1.7188E-01
499.19	1.7418E-01
499.39	1.7424E-01
499.59	1.7150E-01
499.79	1.7211E-01
499.99	1.7160E-01
500.19	1.7504E-01
500.40	1.7210E-01
500.60	1.7489E-01
500.80	1.7413E-01
501.00	1.7293E-01
501.20	1.7190E-01
501.40	1.7627E-01
501.60	1.7316E-01
501.80	1.7342E-01
502.00	1.7606E-01
502.20	1.7451E-01
502.40	1.7465E-01
502.60	1.7154E-01
502.80	1.7894E-01
503.00	1.7716E-01
503.20	1.7524E-01
503.40	1.7410E-01
503.60	1.7631E-01
503.80	1.8003E-01
504.00	1.7775E-01
504.20	1.8095E-01
504.40	1.8072E-01
504.60	1.8331E-01
504.80	1.8363E-01
505.00	1.8330E-01
505.20	1.8650E-01
505.40	1.8437E-01
505.60	1.8358E-01
505.80	1.8558E-01
506.00	1.8584E-01
506.20	1.8465E-01
506.40	1.8469E-01
506.60	1.8507E-01
506.80	1.8335E-01
507.00	1.8662E-01
507.20	1.8803E-01
507.40	1.9021E-01
507.60	1.8740E-01
507.80	1.8897E-01
508.00	1.8973E-01
508.20	1.9333E-01
508.40	1.9138E-01
508.60	1.8864E-01
508.80	1.8708E-01
509.00	1.9472E-01
509.20	1.9171E-01
509.40	1.9041E-01
509.60	1.9230E-01
509.80	1.9084E-01
510.00	1.9602E-01
510.20	1.9523E-01
510.40	1.9671E-01
510.60	1.9441E-01
510.80	1.9317E-01
511.00	1.9257E-01
511.20	1.9824E-01
511.40	1.9450E-01
511.60	1.9549E-01
511.80	1.9657E-01
512.00	1.9683E-01
512.20	1.9873E-01
512.40	1.9646E-01
512.60	1.9799E-01
512.80	1.9854E-01
513.00	2.0122E-01
513.20	2.0037E-01
513.40	1.9861E-01
513.59	1.9709E-01
513.79	2.0084E-01
513.99	1.9948E-01
514.19	2.0038E-01
514.39	1.9884E-01
514.59	2.0192E-01
514.79	1.9915E-01
514.99	1.9952E-01
515.19	2.0175E-01
515.39	2.0315E-01
515.59	2.0375E-01
515.79	1.9940E-01
515.99	2.0601E-01
516.19	2.0580E-01
516.39	2.0519E-01
516.59	2.0713E-01
516.79	2.1089E-01
516.98	2.0659E-01
517.18	2.1211E-01
517.38	2.1233E-01
517.58	2.1421E-01
517.78	2.1551E-01
517.98	2.1696E-01
518.18	2.1968E-01
518.38	2.2625E-01
518.58	2.2374E-01
518.78	2.2440E-01
518.98	2.2654E-01
519.18	2.3014E-01
519.38	2.3441E-01
519.57	2.3447E-01
519.77	2.3378E-01
519.97	2.3855E-01
520.17	2.3915E-01
520.37	2.4058E-01
520.57	2.4470E-01
520.77	2.4681E-01
520.97	2.4746E-01
521.17	2.4765E-01
521.37	2.5204E-01
521.57	2.5536E-01
521.76	2.5245E-01
521.96	2.5654E-01
522.16	2.5663E-01
522.36	2.6202E-01
522.56	2.5698E-01
522.76	2.6042E-01
522.96	2.6520E-01
523.16	2.6353E-01
523.36	2.6686E-01
523.55	2.6376E-01
523.75	2.6552E-01
523.95	2.6642E-01
524.15	2.6467E-01
524.35	2.6720E-01
524.55	2.6847E-01
524.75	2.7117E-01
524.95	2.7272E-01
525.14	2.7148E-01
525.34	2.7158E-01
525.54	2.6962E-01
525.74	2.7307E-01
525.94	2.7491E-01
526.14	2.7902E-01
526.34	2.7924E-01
526.54	2.8299E-01
526.73	2.7939E-01
526.93	2.8551E-01
527.13	2.8746E-01
527.33	2.8911E-01
527.53	2.9223E-01
527.73	2.9067E-01
527.93	2.9522E-01
528.12	2.9200E-01
528.32	2.9568E-01
528.52	3.0145E-01
528.72	3.0423E-01
528.92	3.0232E-01
529.12	3.0349E-01
529.32	3.0558E-01
529.51	3.0778E-01
529.71	3.0890E-01
529.91	3.0929E-01
530.11	3.1227E-01
530.31	3.1622E-01
530.51	3.1199E-01
530.70	3.1190E-01
530.90	3.1533E-01
531.10	3.1403E-01
531.30	3.1667E-01
531.50	3.1695E-01
531.70	3.1886E-01
531.89	3.1638E-01
532.09	3.1783E-01
532.29	3.1786E-01
532.49	3.2297E-01
532.69	3.2175E-01
532.88	3.2129E-01
533.08	3.1922E-01
533.28	3.2311E-01
533.48	3.2791E-01
533.68	3.2615E-01
533.88	3.3181E-01
534.07	3.3141E-01
534.27	3.3153E-01
534.47	3.3446E-01
534.67	3.2917E-01
534.87	3.3532E-01
535.06	3.3560E-01
535.26	3.3380E-01
535.46	3.3295E-01
535.66	3.4155E-01
535.86	3.3603E-01
536.05	3.3631E-01
536.25	3.3833E-01
536.45	3.3938E-01
536.65	3.3920E-01
536.85	3.3758E-01
537.04	3.4051E-01
537.24	3.4489E-01
537.44	3.3616E-01
537.64	3.3462E-01
537.83	3.4153E-01
538.03	3.4247E-01
538.23	3.4568E-01
538.43	3.4499E-01
538.63	3.4053E-01
538.82	3.4317E-01
539.02	3.4399E-01
539.22	3.4733E-01
539.42	3.4332E-01
539.61	3.4664E-01
539.81	3.4765E-01
540.01	3.4434E-01
540.21	3.4738E-01
540.41	3.4649E-01
540.60	3.4845E-01
540.80	3.4860E-01
541.00	3.4943E-01
541.20	3.5377E-01
541.39	3.5323E-01
541.59	3.5326E-01
541.79	3.5478E-01
541.99	3.5954E-01
542.18	3.5813E-01
542.38	3.5853E-01
542.58	3.5902E-01
542.78	3.6197E-01
542.97	3.5786E-01
543.17	3.6305E-01
543.37	3.6052E-01
543.57	3.6668E-01
543.76	3.7140E-01
543.96	3.6969E-01
544.16	3.6603E-01
544.36	3.6926E-01
544.55	3.7519E-01
544.75	3.7227E-01
544.95	3.7584E-01
545.14	3.6786E-01
545.34	3.7663E-01
545.54	3.7283E-01
545.74	3.7511E-01
545.93	3.7951E-01
546.13	3.7841E-01
546.33	3.7542E-01
546.53	3.7461E-01
546.72	3.8128E-01
546.92	3.8169E-01
547.12	3.7909E-01
547.31	3.8243E-01
547.51	3.8067E-01
547.71	3.8616E-01
547.91	3.8672E-01
548.10	3.8051E-01
548.30	3.8400E-01
548.50	3.9063E-01
548.69	3.8932E-01
548.89	3.8880E-01
549.09	3.8943E-01
549.29	3.8816E-01
549.48	3.9786E-01
549.68	3.8826E-01
549.88	3.9438E-01
550.07	3.9576E-01
550.27	3.9515E-01
550.47	3.7700E-01
550.66	4.0146E-01
550.86	3.9185E-01
551.06	4.0234E-01
551.25	3.9593E-01
551.45	4.0296E-01
551.65	4.0361E-01
551.85	4.0742E-01
552.04	3.9608E-01
552.24	4.0320E-01
552.44	4.0010E-01
552.63	3.9960E-01
552.83	4.0380E-01
553.03	3.9878E-01
553.22	4.0893E-01
553.42	4.0299E-01
553.62	4.1154E-01
553.81	4.0447E-01
554.01	4.0893E-01
554.21	4.0368E-01
554.40	4.0792E-01
554.60	4.0647E-01
554.80	4.0966E-01
554.99	4.0931E-01
555.19	4.0865E-01
555.39	4.1004E-01
555.58	4.0567E-01
555.78	4.0761E-01
555.98	4.0581E-01
556.17	4.0550E-01
556.37	4.0702E-01
556.56	4.0741E-01
556.76	4.0713E-01
556.96	4.0386E-01
557.15	4.0597E-01
557.35	4.0394E-01
557.55	4.0358E-01
557.74	4.0212E-01
557.94	4.0574E-01
558.14	4.0796E-01
558.33	4.0224E-01
558.53	4.0210E-01
558.73	4.0565E-01
558.92	4.0122E-01
559.12	4.0988E-01
559.31	4.1092E-01
559.51	4.1449E-01
559.71	4.0944E-01
559.90	4.1295E-01
560.10	4.1287E-01
560.30	4.1288E-01
560.49	4.1090E-01
560.69	4.1509E-01
560.88	4.1886E-01
561.08	4.1024E-01
561.28	4.1175E-01
561.47	4.1611E-01
561.67	4.1732E-01
561.86	4.1434E-01
562.06	4.1728E-01
562.26	4.2001E-01
562.45	4.1688E-01
562.65	4.1900E-01
562.84	4.1183E-01
563.04	4.1525E-01
563.24	4.1403E-01
563.43	4.1926E-01
563.63	4.1917E-01
563.82	4.1565E-01
564.02	4.1934E-01
564.22	4.2110E-01
564.41	4.1448E-01
564.61	4.1805E-01
564.80	4.1896E-01
565.00	4.1512E-01
565.20	4.2139E-01
565.39	4.1360E-01
565.59	4.1109E-01
565.78	4.1565E-01
565.98	4.0980E-01
566.18	4.1828E-01
566.37	4.1484E-01
566.57	4.1163E-01
566.76	4.0939E-01
566.96	4.1627E-01
567.15	4.1024E-01
567.35	4.1809E-01
567.55	4.1263E-01
567.74	4.1330E-01
567.94	4.0968E-01
568.13	4.1325E-01
568.33	4.1703E-01
568.52	4.1557E-01
568.72	4.1155E-01
568.91	4.0931E-01
569.11	4.1010E-01
569.31	4.1570E-01
569.50	4.0813E-01
569.70	4.1269E-01
569.89	4.1177E-01
570.09	4.1063E-01
570.28	4.0852E-01
570.48	4.1158E-01
570.67	4.1713E-01
570.87	4.0946E-01
571.07	4.0970E-01
571.26	4.1498E-01
571.46	4.1377E-01
571.65	4.1627E-01
571.85	4.1817E-01
572.04	4.1444E-01
572.24	4.1972E-01
572.43	4.1350E-01
572.63	4.1826E-01
572.82	4.1369E-01
573.02	4.1925E-01
573.21	4.1459E-01
573.41	4.1767E-01
573.60	4.2199E-01
573.80	4.1924E-01
573.99	4.1657E-01
574.19	4.2234E-01
574.38	4.1789E-01
574.58	4.1957E-01
574.78	4.1393E-01
574.97	4.2028E-01
575.17	4.1841E-01
575.36	4.1564E-01
575.56	4.1306E-01
575.75	4.2160E-01
575.95	4.1607E-01
576.14	4.1409E-01
576.34	4.2117E-01
576.53	4.1535E-01
576.73	4.1736E-01
576.92	4.1263E-01
577.12	4.2203E-01
577.31	4.0989E-01
577.51	4.2330E-01
577.70	4.1856E-01
577.90	4.1895E-01
578.09	4.2142E-01
578.29	4.1651E-01
578.48	4.2410E-01
578.68	4.1975E-01
578.87	4.2867E-01
579.06	4.1942E-01
579.26	4.2390E-01
579.45	4.2074E-01
579.65	4.3003E-01
579.84	4.2381E-01
580.04	4.2855E-01
580.23	4.3139E-01
580.43	4.2200E-01
580.62	4.2901E-01
580.82	4.2982E-01
581.01	4.2780E-01
581.21	4.2716E-01
581.40	4.2584E-01
581.60	4.3228E-01
581.79	4.3412E-01
581.99	4.2844E-01
582.18	4.2922E-01
582.37	4.3324E-01
582.57	4.3310E-01
582.76	4.3677E-01
582.96	4.3774E-01
583.15	4.3642E-01
583.35	4.3564E-01
583.54	4.3635E-01
583.74	4.3595E-01
583.93	4.3179E-01
584.12	4.2908E-01
584.32	4.3828E-01
584.51	4.3441E-01
584.71	4.2751E-01
584.90	4.2824E-01
585.10	4.2945E-01
585.29	4.3019E-01
585.49	4.3072E-01
585.68	4.3217E-01
585.87	4.2833E-01
586.07	4.2667E-01
586.26	4.2457E-01
586.46	4.2399E-01
586.65	4.2147E-01
586.85	4.2310E-01
587.04	4.1316E-01
587.23	4.2207E-01
587.43	4.1898E-01
587.62	4.0849E-01
587.82	4.1711E-01
588.01	4.1148E-01
588.20	4.1250E-01
588.40	4.0772E-01
588.59	4.1213E-01
588.79	4.1341E-01
588.98	4.1700E-01
589.18	4.1234E-01
589.37	4.1671E-01
589.56	4.0953E-01
589.76	4.0770E-01
589.95	4.1884E-01
590.15	4.1478E-01
590.34	4.1074E-01
590.53	4.1996E-01
590.73	4.1523E-01
590.92	4.1592E-01
591.11	4.2121E-01
591.31	4.2167E-01
591.50	4.2548E-01
591.70	4.2300E-01
591.89	4.2945E-01
592.08	4.2103E-01
592.28	4.1907E-01
592.47	4.2798E-01
592.67	4.2675E-01
592.86	4.2717E-01
593.05	4.2016E-01
593.25	4.2821E-01
593.44	4.2545E-01
593.63	4.3237E-01
593.83	4.2600E-01
594.02	4.3504E-01
594.22	4.3504E-01
594.41	4.3909E-01
594.60	4.3289E-01
594.80	4.3440E-01
594.99	4.3580E-01
595.18	4.3562E-01
595.38	4.3364E-01
595.57	4.3707E-01
595.76	4.3883E-01
595.96	4.3802E-01
596.15	4.3386E-01
596.34	4.4872E-01
596.54	4.4758E-01
596.73	4.4404E-01
596.93	4.4755E-01
597.12	4.4460E-01
597.31	4.4931E-01
597.51	4.4538E-01
597.70	4.4756E-01
597.89	4.4582E-01
598.09	4.4435E-01
598.28	4.5673E-01
598.47	4.4666E-01
598.67	4.4980E-01
598.86	4.4571E-01
599.05	4.5566E-01
599.25	4.5232E-01
599.44	4.5592E-01
599.63	4.5988E-01
599.83	4.5324E-01
600.02	4.5458E-01
600.21	4.5470E-01
600.41	4.5792E-01
600.60	4.5165E-01
600.79	4.5828E-01
600.98	4.5878E-01
601.18	4.6585E-01
601.37	4.5570E-01
601.56	4.5863E-01
601.76	4.7138E-01
601.95	4.6012E-01
602.14	4.6265E-01
602.34	4.6299E-01
602.53	4.7017E-01
602.72	4.6278E-01
602.92	4.6851E-01
603.11	4.6511E-01
603.30	4.6937E-01
603.49	4.6590E-01
603.69	4.7477E-01
603.88	4.7003E-01
604.07	4.7360E-01
604.27	4.6950E-01
604.46	4.6372E-01
604.65	4.6935E-01
604.84	4.6772E-01
605.04	4.7264E-01
605.23	4.6952E-01
605.42	4.7015E-01
605.62	4.7207E-01
605.81	4.6674E-01
606.00	4.6822E-01
606.19	4.7231E-01
606.39	4.7214E-01
606.58	4.6599E-01
606.77	4.6797E-01
606.97	4.6362E-01
607.16	4.7077E-01
607.35	4.7294E-01
607.54	4.6744E-01
607.74	4.7348E-01
607.93	4.7464E-01
608.12	4.6743E-01
608.31	4.7070E-01
608.51	4.7226E-01
608.70	4.6776E-01
608.89	4.6574E-01
609.08	4.6131E-01
609.28	4.6740E-01
609.47	4.6874E-01
609.66	4.7032E-01
609.85	4.7157E-01
610.05	4.7244E-01
610.24	4.6638E-01
610.43	4.6921E-01
610.62	4.6768E-01
610.82	4.6473E-01
611.01	4.6864E-01
611.20	4.6592E-01
611.39	4.6698E-01
611.59	4.6651E-01
611.78	4.7019E-01
611.97	4.6812E-01
612.16	4.7412E-01
612.35	4.6536E-01
612.55	4.6604E-01
612.74	4.7094E-01
612.93	4.7038E-01
613.12	4.6317E-01
613.32	4.6746E-01
613.51	4.6899E-01
613.70	4.6792E-01
613.89	4.6776E-01
614.08	4.6923E-01
614.28	4.6725E-01
614.47	4.6450E-01
614.66	4.6685E-01
614.85	4.7188E-01
615.04	4.7165E-01
615.24	4.7713E-01
615.43	4.7060E-01
615.62	4.6925E-01
615.81	4.7010E-01
616.00	4.6296E-01
616.20	4.7074E-01
616.39	4.7201E-01
616.58	4.7252E-01
616.77	4.7318E-01
616.96	4.8304E-01
617.16	4.8229E-01
617.35	4.8106E-01
617.54	4.7694E-01
617.73	4.7592E-01
617.92	4.7876E-01
618.12	4.8708E-01
618.31	4.8538E-01
618.50	4.8811E-01
618.69	4.8477E-01
618.88	4.9472E-01
619.07	4.9024E-01
619.27	4.9303E-01
619.46	4.9538E-01
619.65	5.0136E-01
619.84	4.9260E-01
620.03	4.9154E-01
620.22	5.0023E-01
620.42	4.8642E-01
620.61	5.0252E-01
620.80	5.0010E-01
620.99	4.9871E-01
621.18	5.0584E-01
621.37	4.9653E-01
621.57	4.8857E-01
621.76	4.9975E-01
621.95	4.9744E-01
622.14	4.9138E-01
622.33	4.8806E-01
622.52	4.9232E-01
622.71	4.9763E-01
622.91	4.9955E-01
623.10	4.9661E-01
623.29	4.9571E-01
623.48	4.9215E-01
623.67	4.9701E-01
623.86	4.9718E-01
624.05	4.9647E-01
624.25	4.9080E-01
624.44	4.9814E-01
624.63	5.0254E-01
624.82	4.9756E-01
625.01	4.9420E-01
625.20	5.0173E-01
625.39	4.9109E-01
625.58	4.9985E-01
625.78	5.0224E-01
625.97	4.8949E-01
626.16	4.9551E-01
626.35	4.9434E-01
626.54	5.0197E-01
626.73	5.0209E-01
626.92	4.9877E-01
627.11	4.9821E-01
627.31	4.9743E-01
627.50	4.9581E-01
627.69	5.0111E-01
627.88	5.0311E-01
628.07	4.8604E-01
628.26	4.9586E-01
628.45	4.9319E-01
628.64	4.9625E-01
628.83	4.9663E-01
629.02	4.8491E-01
629.22	5.0552E-01
629.41	4.9400E-01
629.60	4.8593E-01
629.79	5.0208E-01
629.98	4.9434E-01
630.17	4.9927E-01
630.36	4.9788E-01
630.55	4.9891E-01
630.74	5.0091E-01
630.93	5.0606E-01
631.12	4.9375E-01
631.31	4.9462E-01
631.51	5.0312E-01
631.70	5.0122E-01
631.89	4.9438E-01
632.08	4.9678E-01
632.27	5.0106E-01
632.46	4.9894E-01
632.65	4.9984E-01
632.84	4.9221E-01
633.03	5.0772E-01
633.22	5.0104E-01
633.41	5.0813E-01
633.60	5.0849E-01
633.79	5.0265E-01
633.98	4.9339E-01
634.17	5.0300E-01
634.37	5.0296E-01
634.56	5.0848E-01
634.75	4.9657E-01
634.94	5.0673E-01
635.13	5.0176E-01
635.32	5.0853E-01
635.51	5.0853E-01
635.70	4.9963E-01
635.89	5.1613E-01
636.08	5.0350E-01
636.27	4.9695E-01
636.46	5.0798E-01
636.65	5.0269E-01
636.84	4.9610E-01
637.03	5.0628E-01
637.22	5.0481E-01
637.41	5.0102E-01
637.60	5.0432E-01
637.79	5.0519E-01
637.98	5.0278E-01
638.17	5.0263E-01
638.36	4.9578E-01
638.55	4.8954E-01
638.74	4.9032E-01
638.93	4.9270E-01
639.12	4.9111E-01
639.31	4.9273E-01
639.50	4.8932E-01
639.69	4.8713E-01
639.88	4.9596E-01
640.07	4.8853E-01
640.26	4.9773E-01
640.45	4.9318E-01
640.64	4.9404E-01
640.83	4.9398E-01
641.02	5.0012E-01
641.21	4.9147E-01
641.40	4.7896E-01
641.59	4.9122E-01
641.78	4.9324E-01
641.97	4.9090E-01
642.16	4.9326E-01
642.35	4.9065E-01
642.54	4.9003E-01
642.73	4.8669E-01
642.92	4.7083E-01
643.11	4.8876E-01
643.30	4.9015E-01
643.49	4.7998E-01
643.68	4.8300E-01
643.87	4.7411E-01
644.06	4.8059E-01
644.25	4.7257E-01
644.44	4.7317E-01
644.63	4.7144E-01
644.82	4.7049E-01
645.01	4.7397E-01
645.20	4.7146E-01
645.39	4.6719E-01
645.58	4.6426E-01
645.77	4.6380E-01
645.96	4.7036E-01
646.15	4.6431E-01
646.34	4.6590E-01
646.53	4.6281E-01
646.72	4.6320E-01
646.91	4.5404E-01
647.10	4.6930E-01
647.29	4.5683E-01
647.47	4.6182E-01
647.66	4.5451E-01
647.85	4.5018E-01
648.04	4.5168E-01
648.23	4.5161E-01
648.42	4.6795E-01
648.61	4.4573E-01
648.80	4.5493E-01
648.99	4.5998E-01
649.18	4.4988E-01
649.37	4.5989E-01
649.56	4.5534E-01
649.75	4.5182E-01
649.94	4.6130E-01
650.13	4.5832E-01
650.31	4.5956E-01
650.50	4.5601E-01
650.69	4.6143E-01
650.88	4.5815E-01
651.07	4.6016E-01
651.26	4.6398E-01
651.45	4.7299E-01
651.64	4.6575E-01
651.83	4.5795E-01
652.02	4.6344E-01
652.21	4.5865E-01
652.40	4.5748E-01
652.58	4.7128E-01
652.77	4.5291E-01
652.96	4.4958E-01
653.15	4.5731E-01
653.34	4.5471E-01
653.53	4.5465E-01
653.72	4.5293E-01
653.91	4.4278E-01
654.10	4.4590E-01
654.29	4.3843E-01
654.47	4.5156E-01
654.66	4.3186E-01
654.85	4.3393E-01
655.04	4.2719E-01
655.23	4.3440E-01
655.42	4.2348E-01
655.61	4.3254E-01
655.80	4.2960E-01
655.98	4.3685E-01
656.17	4.3537E-01
656.36	4.3914E-01
656.55	4.3424E-01
656.74	4.4700E-01
656.93	4.4514E-01
657.12	4.4705E-01
657.31	4.3860E-01
657.49	4.5591E-01
657.68	4.5184E-01
657.87	4.3884E-01
658.06	4.5934E-01
658.25	4.4892E-01
658.44	4.5748E-01
658.63	4.5137E-01
658.81	4.4864E-01
659.00	4.5698E-01
659.19	4.5340E-01
659.38	4.6736E-01
659.57	4.6723E-01
659.76	4.5771E-01
659.95	4.6988E-01
660.13	4.5205E-01
660.32	4.6383E-01
660.51	4.5924E-01
660.70	4.6705E-01
660.89	4.5916E-01
661.08	4.6159E-01
661.26	4.5608E-01
661.45	4.6326E-01
661.64	4.5680E-01
661.83	4.5509E-01
662.02	4.5738E-01
662.21	4.6293E-01
662.39	4.6619E-01
662.58	4.5826E-01
662.77	4.7311E-01
662.96	4.6480E-01
663.15	4.5531E-01
663.33	4.6860E-01
663.52	4.5864E-01
663.71	4.5810E-01
663.90	4.5742E-01
664.09	4.4736E-01
664.28	4.5382E-01
664.46	4.4815E-01
664.65	4.4930E-01
664.84	4.4283E-01
665.03	4.5222E-01
665.22	4.5498E-01
665.40	4.5334E-01
665.59	4.4682E-01
665.78	4.4528E-01
665.97	4.4551E-01
666.16	4.5193E-01
666.34	4.5766E-01
666.53	4.4491E-01
666.72	4.5487E-01
666.91	4.4755E-01
667.09	4.4894E-01
667.28	4.5412E-01
667.47	4.5113E-01
667.66	4.4802E-01
667.85	4.4782E-01
668.03	4.2246E-01
668.22	4.5383E-01
668.41	4.4842E-01
668.60	4.3182E-01
668.78	4.5308E-01
668.97	4.4462E-01
669.16	4.3786E-01
669.35	4.5148E-01
669.54	4.3754E-01
669.72	4.5157E-01
669.91	4.4311E-01
670.10	4.4528E-01
670.29	4.4395E-01
670.47	4.5015E-01
670.66	4.5403E-01
670.85	4.4606E-01
671.04	4.3582E-01
671.22	4.3544E-01
671.41	4.4513E-01
671.60	4.4605E-01
671.79	4.4671E-01
671.97	4.4008E-01
672.16	4.5500E-01
672.35	4.4990E-01
672.54	4.5016E-01
672.72	4.4425E-01
672.91	4.3893E-01
673.10	4.4523E-01
673.28	4.4170E-01
673.47	4.4344E-01
673.66	4.4578E-01
673.85	4.5920E-01
674.03	4.5194E-01
674.22	4.5043E-01
674.41	4.4346E-01
674.60	4.4347E-01
674.78	4.3329E-01
674.97	4.4050E-01
675.16	4.6411E-01
675.34	4.5475E-01
675.53	4.4663E-01
675.72	4.4074E-01
675.91	4.6220E-01
676.09	4.5150E-01
676.28	4.5777E-01
676.47	4.5409E-01
676.65	4.4170E-01
676.84	4.5227E-01
677.03	4.5859E-01
677.22	4.4791E-01
677.40	4.5851E-01
677.59	4.5396E-01
677.78	4.5003E-01
677.96	4.5434E-01
678.15	4.6103E-01
678.34	4.6955E-01
678.52	4.5185E-01
678.71	4.5532E-01
678.90	4.5678E-01
679.08	4.6061E-01
679.27	4.5167E-01
679.46	4.6867E-01
679.64	4.6023E-01
679.83	4.5501E-01
680.02	4.5833E-01
680.21	4.4337E-01
680.39	4.6781E-01
680.58	4.5978E-01
680.77	4.5634E-01
680.95	4.5922E-01
681.14	4.4798E-01
681.33	4.5953E-01
681.51	4.6624E-01
681.70	4.6326E-01
681.89	4.6883E-01
682.07	4.6285E-01
682.26	4.5036E-01
682.44	4.6823E-01
682.63	4.6732E-01
682.82	4.7252E-01
683.00	4.4846E-01
683.19	4.6294E-01
683.38	4.6800E-01
683.56	4.7185E-01
683.75	4.6685E-01
683.94	4.5347E-01
684.12	4.5176E-01
684.31	4.6392E-01
684.50	4.6508E-01
684.68	4.5261E-01
684.87	4.5056E-01
685.05	4.5341E-01
685.24	4.3936E-01
685.43	4.4854E-01
685.61	4.4689E-01
685.80	4.3602E-01
685.99	4.4480E-01
686.17	4.3093E-01
686.36	4.4604E-01
686.54	4.4508E-01
686.73	4.4046E-01
686.92	4.4132E-01
687.10	4.3655E-01
687.29	4.4683E-01
687.48	4.3740E-01
687.66	4.5635E-01
687.85	4.4267E-01
688.03	4.4966E-01
688.22	4.3998E-01
688.41	4.5765E-01
688.59	4.4536E-01
688.78	4.6431E-01
688.96	4.7017E-01
689.15	4.8100E-01
689.34	4.5536E-01
689.52	4.8975E-01
689.71	4.8062E-01
689.89	4.8986E-01
690.08	5.0123E-01
690.27	4.9366E-01
690.45	4.9199E-01
690.64	4.9256E-01
690.82	4.8769E-01
691.01	5.0137E-01
691.19	4.9997E-01
691.38	5.0683E-01
691.57	5.1553E-01
691.75	5.0466E-01
691.94	5.2166E-01
692.12	5.1479E-01
692.31	5.2808E-01
692.50	5.2034E-01
692.68	5.2928E-01
692.87	5.3823E-01
693.05	5.3340E-01
693.24	5.2310E-01
693.42	5.3152E-01
693.61	5.4200E-01
693.79	5.5175E-01
693.98	5.4224E-01
694.17	5.5303E-01
694.35	5.6467E-01
694.54	5.6815E-01
694.72	5.6630E-01
694.91	5.7103E-01
695.09	5.7483E-01
695.28	5.7955E-01
695.46	5.8482E-01
695.65	5.9080E-01
695.83	5.9543E-01
696.02	6.0566E-01
696.21	6.1009E-01
696.39	6.0228E-01
696.58	6.1248E-01
696.76	5.9118E-01
696.95	6.0639E-01
697.13	6.1128E-01
697.32	6.1925E-01
697.50	6.1892E-01
697.69	6.2409E-01
697.87	6.3314E-01
698.06	6.3598E-01
698.24	6.2712E-01
698.43	6.3308E-01
698.61	6.5199E-01
698.80	6.4278E-01
698.98	6.5458E-01
699.17	6.2941E-01
699.35	6.5154E-01
699.54	6.4733E-01
699.72	6.3568E-01
699.91	6.6098E-01
700.09	6.6397E-01
700.28	6.7051E-01
700.46	6.7365E-01
700.65	6.7103E-01
700.83	6.7904E-01
701.02	6.8712E-01
701.20	6.6359E-01
701.39	6.9831E-01
701.57	6.9219E-01
701.76	6.8182E-01
701.94	6.9336E-01
702.13	7.0150E-01
702.31	6.8201E-01
702.50	7.3001E-01
702.68	7.2291E-01
702.87	7.3101E-01
703.05	7.3498E-01
703.24	7.3085E-01
703.42	7.0707E-01
703.61	7.4512E-01
703.79	7.5431E-01
703.98	7.3482E-01
704.16	7.4546E-01
704.35	7.4352E-01
704.53	7.5639E-01
704.72	7.6110E-01
704.90	7.6730E-01
705.08	7.5602E-01
705.27	7.8281E-01
705.45	7.8163E-01
705.64	7.9104E-01
705.82	7.8926E-01
706.01	7.9096E-01
706.19	7.8638E-01
706.38	7.9442E-01
706.56	8.1298E-01
706.75	8.1186E-01
706.93	8.0991E-01
707.11	7.9827E-01
707.30	8.2214E-01
707.48	8.2120E-01
707.67	8.1111E-01
707.85	8.2010E-01
708.04	8.3123E-01
708.22	8.2942E-01
708.40	8.2161E-01
708.59	8.2037E-01
708.77	8.4541E-01
708.96	8.3944E-01
709.14	8.4685E-01
709.33	8.4301E-01
709.51	8.5462E-01
709.69	8.5627E-01
709.88	8.6461E-01
710.06	8.6371E-01
710.25	8.5488E-01
710.43	8.6821E-01
710.62	8.8014E-01
710.80	8.7326E-01
710.98	8.8037E-01
711.17	8.7618E-01
711.35	8.8432E-01
711.54	8.9107E-01
711.72	8.8011E-01
711.90	8.9438E-01
712.09	8.9684E-01
712.27	8.8161E-01
712.46	8.9502E-01
712.64	8.8404E-01
712.82	9.0501E-01
713.01	9.0642E-01
713.19	9.0385E-01
713.37	8.9382E-01
713.56	8.8870E-01
713.74	8.9928E-01
713.93	8.8676E-01
714.11	8.7691E-01
714.29	8.6010E-01
714.48	8.7789E-01
714.66	8.7304E-01
714.85	8.5818E-01
715.03	8.5738E-01
715.21	8.4904E-01
715.40	8.3332E-01
715.58	8.2992E-01
715.76	8.1353E-01
715.95	8.1443E-01
716.13	8.2325E-01
716.31	8.0750E-01
716.50	7.9742E-01
716.68	7.8470E-01
716.87	7.9118E-01
717.05	7.8567E-01
717.23	7.6724E-01
717.42	7.7753E-01
717.60	7.6853E-01
717.78	7.7483E-01
717.97	7.7549E-01
718.15	7.6981E-01
718.33	7.6503E-01
718.52	7.7739E-01
718.70	7.8640E-01
718.88	7.7599E-01
719.07	8.0872E-01
719.25	7.9358E-01
719.43	8.0662E-01
719.62	8.0711E-01
719.80	8.1250E-01
719.98	8.3460E-01
720.17	8.3202E-01
720.35	8.3582E-01
720.53	8.5305E-01
720.72	8.6254E-01
720.90	8.5687E-01
721.08	8.5396E-01
721.27	8.6183E-01
721.45	8.6411E-01
721.63	8.6311E-01
721.82	8.7414E-01
722.00	8.6706E-01
722.18	8.7004E-01
722.36	8.8458E-01
722.55	8.7771E-01
722.73	8.7920E-01
722.91	8.7756E-01
723.10	8.8776E-01
723.28	8.7869E-01
723.46	8.5537E-01
723.65	8.7345E-01
723.83	8.7426E-01
724.01	8.7005E-01
724.19	8.8192E-01
724.38	8.8290E-01
724.56	8.8834E-01
724.74	8.9605E-01
724.93	8.7176E-01
725.11	8.7923E-01
725.29	8.9789E-01
725.47	8.9869E-01
725.66	9.0178E-01
725.84	8.9894E-01
726.02	9.0323E-01
726.21	9.2075E-01
726.39	9.0959E-01
726.57	9.1674E-01
726.75	9.1321E-01
726.94	9.3227E-01
727.12	9.1949E-01
727.30	9.1856E-01
727.48	9.1458E-01
727.67	9.3465E-01
727.85	9.2654E-01
728.03	9.3835E-01
728.21	9.5419E-01
728.40	9.4006E-01
728.58	9.6383E-01
728.76	9.5745E-01
728.94	9.6870E-01
729.13	9.8221E-01
729.31	9.6731E-01
729.49	9.8189E-01
729.67	9.8732E-01
729.86	9.9808E-01
730.04	9.8823E-01
730.22	1.0140E00
730.40	1.0166E00
730.59	1.0246E00
730.77	1.0341E00
730.95	1.0543E00
731.13	1.0555E00
731.31	1.0656E00
731.50	1.0550E00
731.68	1.0921E00
731.86	1.0875E00
732.04	1.1015E00
732.23	1.1220E00
732.41	1.1178E00
732.59	1.1301E00
732.77	1.1396E00
732.95	1.1462E00
733.14	1.1439E00
733.32	1.1691E00
733.50	1.1635E00
733.68	1.1664E00
733.86	1.1687E00
734.05	1.1846E00
734.23	1.1898E00
734.41	1.1692E00
734.59	1.1873E00
734.77	1.1953E00
734.96	1.1763E00
735.14	1.2102E00
735.32	1.2093E00
735.50	1.2104E00
735.68	1.2285E00
735.87	1.2174E00
736.05	1.2386E00
736.23	1.2048E00
736.41	1.2339E00
736.59	1.2283E00
736.77	1.2245E00
736.96	1.2245E00
737.14	1.2125E00
737.32	1.2406E00
737.50	1.2495E00
737.68	1.2447E00
737.87	1.2524E00
738.05	1.2689E00
738.23	1.2400E00
738.41	1.2542E00
738.59	1.2631E00
738.77	1.2713E00
738.95	1.2857E00
739.14	1.2618E00
739.32	1.2673E00
739.50	1.2952E00
739.68	1.2747E00
739.86	1.2870E00
740.04	1.2879E00
740.23	1.2757E00
740.41	1.3052E00
740.59	1.3111E00
740.77	1.3209E00
740.95	1.3157E00
741.13	1.3122E00
741.31	1.3103E00
741.50	1.3180E00
741.68	1.3159E00
741.86	1.3139E00
742.04	1.3366E00
742.22	1.3440E00
742.40	1.3380E00
742.58	1.3462E00
742.76	1.3519E00
742.95	1.3271E00
743.13	1.3622E00
743.31	1.3569E00
743.49	1.3501E00
743.67	1.3709E00
743.85	1.3661E00
744.03	1.3567E00
744.21	1.3656E00
744.39	1.3490E00
744.58	1.3732E00
744.76	1.3706E00
744.94	1.3838E00
745.12	1.3731E00
745.30	1.3636E00
745.48	1.3795E00
745.66	1.3847E00
745.84	1.3627E00
746.02	1.3644E00
746.20	1.3745E00
746.38	1.3835E00
746.57	1.3989E00
746.75	1.3595E00
746.93	1.3901E00
747.11	1.3691E00
747.29	1.3832E00
747.47	1.3946E00
747.65	1.3906E00
747.83	1.3642E00
748.01	1.3830E00
748.19	1.3870E00
748.37	1.3851E00
748.55	1.3876E00
748.73	1.3797E00
748.92	1.3920E00
749.10	1.3797E00
749.28	1.3990E00
749.46	1.3874E00
749.64	1.3784E00
749.82	1.3873E00
750.00	1.4022E00
750.18	1.3974E00
750.36	1.3786E00
750.54	1.4005E00
750.72	1.4115E00
750.90	1.4123E00
751.08	1.4039E00
751.26	1.4213E00
751.44	1.4223E00
751.62	1.4345E00
751.80	1.4225E00
751.98	1.4328E00
752.16	1.4380E00
752.34	1.4418E00
752.52	1.4487E00
752.71	1.4208E00
752.89	1.4181E00
753.07	1.4533E00
753.25	1.4234E00
753.43	1.4581E00
753.61	1.4370E00
753.79	1.4674E00
753.97	1.4620E00
754.15	1.4697E00
754.33	1.4782E00
754.51	1.4776E00
754.69	1.4823E00
754.87	1.4705E00
755.05	1.4723E00
755.23	1.4855E00
755.41	1.4964E00
755.59	1.4154E00
755.77	1.4612E00
755.95	1.4536E00
756.13	1.4198E00
756.31	1.4413E00
756.49	1.4307E00
756.67	1.4030E00
756.85	1.3841E00
757.03	1.3592E00
757.21	1.3440E00
757.39	1.3278E00
757.57	1.3106E00
757.75	1.2608E00
757.93	1.2138E00
758.11	1.1993E00
758.29	1.1734E00
758.47	1.1350E00
758.65	1.1202E00
758.83	1.1219E00
759.01	1.0858E00
759.18	1.0498E00
759.36	9.9696E-01
759.54	1.0026E00
759.72	9.6366E-01
759.90	9.6464E-01
760.08	9.5136E-01
760.26	9.4445E-01
760.44	9.1399E-01
760.62	8.9029E-01
760.80	8.8940E-01
760.98	9.2085E-01
761.16	9.1895E-01
761.34	9.0469E-01
761.52	9.2934E-01
761.70	9.0403E-01
761.88	9.1326E-01
762.06	9.2295E-01
762.24	9.2461E-01
762.42	9.3523E-01
762.60	9.4340E-01
762.78	9.5994E-01
762.95	9.6561E-01
763.13	9.9188E-01
763.31	1.0133E00
763.49	1.0194E00
763.67	1.0411E00
763.85	1.0384E00
764.03	1.0906E00
764.21	1.0870E00
764.39	1.1236E00
764.57	1.1616E00
764.75	1.1710E00
764.93	1.2254E00
765.11	1.2137E00
765.28	1.2608E00
765.46	1.2734E00
765.64	1.2862E00
765.82	1.3161E00
766.00	1.3427E00
766.18	1.3598E00
766.36	1.3743E00
766.54	1.3853E00
766.72	1.4056E00
766.90	1.4533E00
767.07	1.4229E00
767.25	1.4558E00
767.43	1.4754E00
767.61	1.5007E00
767.79	1.5124E00
767.97	1.5142E00
768.15	1.5117E00
768.33	1.5091E00
768.51	1.5386E00
768.68	1.5431E00
768.86	1.5326E00
769.04	1.5430E00
769.22	1.5849E00
769.40	1.5832E00
769.58	1.5689E00
769.76	1.6076E00
769.94	1.6059E00
770.11	1.5848E00
770.29	1.6005E00
770.47	1.5992E00
770.65	1.6033E00
770.83	1.6035E00
771.01	1.6196E00
771.19	1.6171E00
771.36	1.5979E00
771.54	1.6210E00
771.72	1.6072E00
771.90	1.5897E00
772.08	1.6125E00
772.26	1.6295E00
772.44	1.5934E00
772.61	1.6145E00
772.79	1.5903E00
772.97	1.6211E00
773.15	1.6373E00
773.33	1.5991E00
773.51	1.6208E00
773.68	1.5979E00
773.86	1.5863E00
774.04	1.5987E00
774.22	1.5804E00
774.40	1.5920E00
774.58	1.6027E00
774.75	1.5954E00
774.93	1.5676E00
775.11	1.6035E00
775.29	1.5780E00
775.47	1.5584E00
775.64	1.5908E00
775.82	1.5763E00
776.00	1.5814E00
776.18	1.5588E00
776.36	1.5598E00
776.53	1.5924E00
776.71	1.5542E00
776.89	1.5477E00
777.07	1.5635E00
777.25	1.5593E00
777.42	1.5551E00
777.60	1.5389E00
777.78	1.5600E00
777.96	1.5450E00
778.14	1.5628E00
778.31	1.5452E00
778.49	1.5152E00
778.67	1.5230E00
778.85	1.5313E00
779.03	1.5435E00
779.20	1.5396E00
779.38	1.5320E00
779.56	1.5077E00
779.74	1.5384E00
779.91	1.5186E00
780.09	1.5130E00
780.27	1.4954E00
780.45	1.5060E00
780.62	1.5176E00
780.80	1.5230E00
780.98	1.4888E00
781.16	1.4724E00
781.34	1.5056E00
781.51	1.5074E00
781.69	1.5103E00
781.87	1.5010E00
782.05	1.4921E00
782.22	1.4911E00
782.40	1.4765E00
782.58	1.4870E00
782.76	1.4650E00
782.93	1.4893E00
783.11	1.5001E00
783.29	1.4665E00
783.47	1.4671E00
783.64	1.4735E00
783.82	1.4564E00
784.00	1.4294E00
784.17	1.4509E00
784.35	1.4548E00
784.53	1.4428E00
784.71	1.4551E00
784.88	1.4374E00
785.06	1.4652E00
785.24	1.4366E00
785.42	1.4509E00
785.59	1.4349E00
785.77	1.3946E00
785.95	1.4086E00
786.12	1.3864E00
786.30	1.4021E00
786.48	1.3951E00
786.65	1.3823E00
786.83	1.3849E00
787.01	1.3853E00
787.19	1.3752E00
787.36	1.3798E00
787.54	1.3674E00
787.72	1.3738E00
787.89	1.3654E00
788.07	1.3544E00
788.25	1.3461E00
788.42	1.3375E00
788.60	1.3578E00
788.78	1.3342E00
788.96	1.3367E00
789.13	1.3158E00
789.31	1.3217E00
789.49	1.3212E00
789.66	1.3366E00
789.84	1.3140E00
790.02	1.2861E00
790.19	1.3089E00
790.37	1.3201E00
790.55	1.3131E00
790.72	1.3153E00
790.90	1.3355E00
791.08	1.3005E00
791.25	1.3051E00
791.43	1.3070E00
791.61	1.2936E00
791.78	1.2931E00
791.96	1.2670E00
792.14	1.2910E00
792.31	1.3067E00
792.49	1.2611E00
792.67	1.3089E00
792.84	1.2759E00
793.02	1.2769E00
793.19	1.2675E00
793.37	1.2931E00
793.55	1.2935E00
793.72	1.2861E00
793.90	1.2549E00
794.08	1.2723E00
794.25	1.2748E00
794.43	1.2568E00
794.61	1.2717E00
794.78	1.2687E00
794.96	1.2434E00
795.13	1.2701E00
795.31	1.2748E00
795.49	1.2449E00
795.66	1.2650E00
795.84	1.2524E00
796.01	1.2573E00
796.19	1.2467E00
796.37	1.2651E00
796.54	1.2541E00
796.72	1.2612E00
796.90	1.2450E00
797.07	1.2262E00
797.25	1.2440E00
797.42	1.2597E00
797.60	1.2523E00
797.78	1.2391E00
797.95	1.2186E00
798.13	1.2054E00
798.30	1.2308E00
798.48	1.2248E00
798.66	1.2448E00
798.83	1.2018E00
799.01	1.2238E00
799.18	1.2075E00
799.36	1.2364E00
799.53	1.1871E00
799.71	1.2279E00
799.89	1.2033E00
800.06	1.2058E00
800.24	1.2078E00
800.41	1.1779E00
800.59	1.2203E00
800.76	1.1833E00
800.94	1.1819E00
801.12	1.2036E00
801.29	1.1971E00
801.47	1.2039E00
801.64	1.1746E00
801.82	1.1985E00
801.99	1.1938E00
802.17	1.1906E00
802.34	1.1801E00
802.52	1.1780E00
802.70	1.1875E00
802.87	1.1603E00
803.05	1.1467E00
803.22	1.1917E00
803.40	1.1645E00
803.57	1.1655E00
803.75	1.1893E00
803.92	1.1688E00
804.10	1.1418E00
804.27	1.1478E00
804.45	1.1653E00
804.63	1.1572E00
804.80	1.1464E00
804.98	1.1659E00
805.15	1.1339E00
805.33	1.1828E00
805.50	1.1900E00
805.68	1.1815E00
805.85	1.1929E00
806.03	1.1710E00
806.20	1.1766E00
806.38	1.1240E00
806.55	1.1365E00
806.73	1.1839E00
806.90	1.1540E00
807.08	1.1431E00
807.25	1.1159E00
807.43	1.1447E00
807.60	1.1594E00
807.78	1.1254E00
807.95	1.0992E00
808.13	1.1144E00
808.30	1.1066E00
808.48	1.1372E00
808.65	1.1237E00
808.83	1.1517E00
809.00	1.1208E00
809.18	1.1468E00
809.35	1.0994E00
809.53	1.1340E00
809.70	1.1168E00
809.88	1.1179E00
810.05	1.1103E00
810.23	1.1230E00
810.40	1.1067E00
810.57	1.1010E00
810.75	1.0765E00
810.92	1.0685E00
811.10	1.0715E00
811.27	1.0409E00
811.45	1.0524E00
811.62	1.0342E00
811.80	1.0155E00
811.97	1.0309E00
812.15	1.0283E00
812.32	1.0210E00
812.50	9.7292E-01
812.67	1.0354E00
812.84	9.7026E-01
813.02	9.8858E-01
813.19	9.7425E-01
813.37	9.6905E-01
813.54	9.3784E-01
813.72	9.4181E-01
813.89	9.1197E-01
814.07	9.2866E-01
814.24	9.3127E-01
814.41	9.3146E-01
814.59	8.9293E-01
814.76	8.8186E-01
814.94	9.0188E-01
815.11	9.0738E-01
815.29	8.4296E-01
815.46	8.5021E-01
815.63	8.6284E-01
815.81	8.6180E-01
815.98	8.1633E-01
816.16	8.2392E-01
816.33	8.6449E-01
816.50	8.7879E-01
816.68	8.5949E-01
816.85	8.4382E-01
817.03	8.6712E-01
817.20	8.5353E-01
817.37	8.7453E-01
817.55	8.5449E-01
817.72	8.6722E-01
817.90	8.3272E-01
818.07	8.5882E-01
818.24	8.2593E-01
818.42	8.4394E-01
818.59	8.4298E-01
818.77	8.4562E-01
818.94	8.7428E-01
819.11	8.3949E-01
819.29	8.8203E-01
819.46	8.7557E-01
819.64	8.3301E-01
819.81	8.9686E-01
819.98	8.8848E-01
820.16	8.5511E-01
820.33	8.8018E-01
820.50	8.7498E-01
820.68	8.4959E-01
820.85	8.7271E-01
821.02	8.6037E-01
821.20	8.3597E-01
821.37	8.6265E-01
821.55	8.2435E-01
821.72	8.5172E-01
821.89	8.5810E-01
822.07	8.7933E-01
822.24	8.7770E-01
822.41	8.2427E-01
822.59	8.9572E-01
822.76	8.9182E-01
822.93	8.5306E-01
823.11	8.6396E-01
823.28	8.7814E-01
823.45	8.5863E-01
823.63	8.6108E-01
823.80	8.8531E-01
823.97	8.2188E-01
824.15	8.8735E-01
824.32	8.5782E-01
824.49	9.1093E-01
824.67	8.6566E-01
824.84	8.8471E-01
825.01	8.8536E-01
825.19	8.8545E-01
825.36	8.8317E-01
825.53	9.0660E-01
825.71	8.9467E-01
825.88	8.9903E-01
826.05	8.6091E-01
826.23	8.9255E-01
826.40	8.6974E-01
826.57	8.7259E-01
826.75	8.6210E-01
826.92	8.4234E-01
827.09	8.3961E-01
827.26	9.0288E-01
827.44	8.7387E-01
827.61	9.0500E-01
827.78	8.8433E-01
827.96	8.3606E-01
828.13	9.0376E-01
828.30	8.8367E-01
828.48	8.7072E-01
828.65	8.6378E-01
828.82	8.6949E-01
828.99	8.7380E-01
829.17	8.8040E-01
829.34	8.2761E-01
829.51	8.7151E-01
829.68	9.0574E-01
829.86	8.9561E-01
830.03	8.7537E-01
830.20	8.8749E-01
830.38	8.7788E-01
830.55	8.5426E-01
830.72	8.9038E-01
830.89	8.5105E-01
831.07	8.5102E-01
831.24	8.4918E-01
831.41	8.6307E-01
831.58	8.9003E-01
831.76	9.1277E-01
831.93	8.9087E-01
832.10	8.8883E-01
832.27	8.4085E-01
832.45	8.3875E-01
832.62	8.7678E-01
832.79	8.5565E-01
832.96	8.8385E-01
833.14	8.3815E-01
833.31	9.0663E-01
833.48	8.7822E-01
833.65	8.5868E-01
833.83	9.1060E-01
834.00	9.1861E-01
834.17	8.7816E-01
834.34	8.9768E-01
834.51	8.7834E-01
834.69	8.6321E-01
834.86	9.0998E-01
835.03	8.7993E-01
835.20	9.0871E-01
835.38	8.8857E-01
835.55	8.9818E-01
835.72	8.8556E-01
835.89	9.5252E-01
836.06	8.8685E-01
836.24	8.8417E-01
836.41	8.6538E-01
836.58	9.2369E-01
836.75	9.1637E-01
836.92	9.0455E-01
837.10	8.7830E-01
837.27	8.9651E-01
837.44	8.7718E-01
837.61	9.3273E-01
837.78	8.9077E-01
837.96	9.1723E-01
838.13	9.0343E-01
838.30	9.3192E-01
838.47	9.1781E-01
838.64	9.0666E-01
838.82	9.0728E-01
838.99	9.5842E-01
839.16	9.0417E-01
839.33	9.0866E-01
839.50	9.5189E-01
839.67	9.2821E-01
839.85	8.7921E-01
840.02	9.2210E-01
840.19	8.9987E-01
840.36	9.4705E-01
840.53	8.8908E-01
840.70	8.8206E-01
840.88	9.3562E-01
841.05	9.4730E-01
841.22	9.1947E-01
841.39	9.1809E-01
841.56	9.2369E-01
841.73	9.1139E-01
841.91	9.3596E-01
842.08	9.3117E-01
842.25	9.2270E-01
842.42	9.2917E-01
842.59	9.0985E-01
842.76	9.5397E-01
842.93	9.0700E-01
843.11	9.2140E-01
843.28	9.0419E-01
843.45	9.0958E-01
843.62	8.7441E-01
843.79	8.8359E-01
843.96	9.3760E-01
844.13	9.1179E-01
844.30	9.1139E-01
844.48	9.4317E-01
844.65	8.8507E-01
844.82	8.6226E-01
844.99	8.9626E-01
845.16	8.9159E-01
845.33	8.9835E-01
845.50	8.9374E-01
845.67	8.6070E-01
845.84	8.9827E-01
846.02	8.7851E-01
846.19	9.0154E-01
846.36	9.0264E-01
846.53	9.4474E-01
846.70	9.0958E-01
846.87	8.5963E-01
847.04	9.1522E-01
847.21	9.0976E-01
847.38	9.0905E-01
847.55	9.0442E-01
847.73	8.6755E-01
847.90	8.8126E-01
848.07	8.4636E-01
848.24	8.6168E-01
848.41	8.4421E-01
848.58	9.4006E-01
848.75	8.6481E-01
848.92	9.2149E-01
849.09	8.7651E-01
849.26	8.5613E-01
849.43	8.3778E-01
849.60	8.5970E-01
849.77	8.8445E-01
849.94	7.6817E-01
850.12	8.8800E-01
850.29	8.6201E-01
850.46	8.4676E-01
850.63	8.3236E-01
850.80	8.5768E-01
850.97	8.5550E-01
851.14	8.1127E-01
851.31	7.7828E-01
851.48	8.1914E-01
851.65	8.3514E-01
851.82	8.6265E-01
851.99	8.5166E-01
852.16	7.7422E-01
852.33	8.3463E-01
852.50	8.0618E-01
852.67	8.1304E-01
852.84	8.2480E-01
853.01	8.0036E-01
853.18	8.2520E-01
853.35	7.8273E-01
853.52	8.5912E-01
853.69	8.0694E-01
853.86	7.7115E-01
854.03	7.6405E-01
854.21	8.1766E-01
854.38	8.0233E-01
854.55	8.2314E-01
854.72	8.3293E-01
854.89	7.7332E-01
855.06	7.3365E-01
855.23	7.9213E-01
855.40	8.3821E-01
855.57	7.6401E-01
855.74	7.8179E-01
855.91	7.9271E-01
856.08	7.6089E-01
856.25	7.9788E-01
856.42	7.9108E-01
856.59	7.8599E-01
856.76	8.0092E-01
856.93	7.9349E-01
857.10	7.8597E-01
857.27	8.3754E-01
857.44	8.0228E-01
857.61	7.9696E-01
857.77	7.5485E-01
857.94	7.6151E-01
858.11	7.5532E-01
858.28	8.2082E-01
858.45	7.5308E-01
858.62	7.9499E-01
858.79	7.6962E-01
858.96	7.7051E-01
859.13	7.7418E-01
859.30	8.0486E-01
859.47	7.6472E-01
859.64	7.2159E-01
859.81	8.0772E-01
859.98	8.0591E-01
860.15	7.7696E-01
860.32	7.5840E-01
860.49	8.5502E-01
860.66	7.9596E-01
860.83	8.0709E-01
861.00	7.9371E-01
861.17	8.0307E-01
861.34	8.1055E-01
861.51	7.2682E-01
861.68	8.0742E-01
861.84	7.9014E-01
862.01	7.5513E-01
862.18	7.6611E-01
862.35	7.9554E-01
862.52	7.9553E-01
862.69	7.7365E-01
862.86	7.9136E-01
863.03	8.0441E-01
863.20	7.8265E-01
863.37	7.8933E-01
863.54	7.4298E-01
863.71	7.4552E-01
863.88	7.6436E-01
864.05	7.5695E-01
864.21	7.8364E-01
864.38	7.2688E-01
864.55	7.1068E-01
864.72	7.9871E-01
864.89	7.5382E-01
865.06	7.9019E-01
865.23	7.4346E-01
865.40	7.1445E-01
865.57	7.8957E-01
865.74	7.5947E-01
865.90	7.6623E-01
866.07	7.5976E-01
866.24	7.0264E-01
866.41	6.9039E-01
866.58	7.0993E-01
866.75	7.2086E-01
866.92	7.2188E-01
867.09	7.2357E-01
867.26	7.2689E-01
867.42	6.8867E-01
867.59	6.6184E-01
867.76	7.3949E-01
867.93	7.0452E-01
868.10	7.2426E-01
868.27	6.5271E-01
868.44	7.2488E-01
868.60	7.4030E-01
868.77	7.3373E-01
868.94	7.1373E-01
869.11	7.0986E-01
869.28	7.4610E-01
869.45	6.6530E-01
869.62	7.3419E-01
869.78	7.1271E-01
869.95	6.7571E-01
870.12	7.0277E-01
870.29	7.2610E-01
870.46	7.3719E-01
870.63	7.0188E-01
870.80	6.6455E-01
870.96	6.9847E-01
871.13	6.8832E-01
871.30	7.2583E-01
871.47	7.3335E-01
871.64	7.2825E-01
871.81	6.2872E-01
871.97	7.5098E-01
872.14	6.6205E-01
872.31	6.4611E-01
872.48	6.8322E-01
872.65	7.2895E-01
872.81	6.8927E-01
872.98	7.4049E-01
873.15	7.1638E-01
873.32	7.1713E-01
873.49	6.8437E-01
873.66	7.0952E-01
873.82	6.8706E-01
873.99	6.6180E-01
874.16	6.9761E-01
874.33	6.7199E-01
874.50	7.0954E-01
874.66	6.8111E-01
874.83	6.9199E-01
875.00	6.8117E-01
875.17	6.1317E-01
875.34	7.0295E-01
875.50	6.6165E-01
875.67	6.4729E-01
875.84	6.6063E-01
876.01	6.4178E-01
876.17	6.2008E-01
876.34	6.2266E-01
876.51	7.0296E-01
876.68	6.8263E-01
876.85	6.6501E-01
877.01	6.8899E-01
877.18	6.4368E-01
877.35	6.6086E-01
877.52	6.5832E-01
877.68	6.8324E-01
877.85	6.4803E-01
878.02	6.6422E-01
878.19	6.4533E-01
878.35	6.6148E-01
878.52	6.5478E-01
878.69	6.6890E-01
878.86	6.2079E-01
879.02	6.4433E-01
879.19	6.0609E-01
879.36	6.3095E-01
879.53	5.7570E-01
879.69	6.2592E-01
879.86	6.7811E-01
880.03	6.6641E-01
880.20	6.1872E-01
880.36	6.7919E-01
880.53	6.1106E-01
880.70	6.8098E-01
880.87	6.3180E-01
881.03	6.2882E-01
881.20	5.7144E-01
881.37	6.1735E-01
881.54	6.3618E-01
881.70	6.7100E-01
881.87	6.1024E-01
882.04	6.1219E-01
882.20	6.1703E-01
882.37	5.7092E-01
882.54	6.3274E-01
882.71	6.2624E-01
882.87	6.6347E-01
883.04	6.0895E-01
883.21	6.0600E-01
883.37	5.8918E-01
883.54	6.1128E-01
883.71	5.9435E-01
883.87	5.6687E-01
884.04	6.4008E-01
884.21	5.9023E-01
884.38	5.6968E-01
884.54	6.5118E-01
884.71	6.5206E-01
884.88	5.9371E-01
885.04	6.1193E-01
885.21	5.7229E-01
885.38	5.7661E-01
885.54	6.6348E-01
885.71	5.8416E-01
885.88	6.1162E-01
886.04	6.0207E-01
886.21	6.0281E-01
886.38	5.7680E-01
886.54	5.8453E-01
886.71	5.5448E-01
886.88	6.2600E-01
887.04	5.3276E-01
887.21	5.6985E-01
887.38	6.1234E-01
887.54	5.3848E-01
887.71	6.0570E-01
887.88	5.3810E-01
888.04	5.7653E-01
888.21	5.8641E-01
888.38	5.7489E-01
888.54	5.5167E-01
888.71	5.9921E-01
888.87	5.1472E-01
889.04	5.1472E-01
>>>>>End Processed Spectral Data<<<<<
