SpectraSuite Data File
++++++++++++++++++++++++++++++++++++
Date: Wed Jul 25 10:49:58 HST 2007
User: guest
Dark Spectrum Present: Yes
Reference Spectrum Present: No
Number of Sampled Component Spectra: 1
Spectrometers: USB4E01242
Integration Time (usec): 20000 (USB4E01242)
Spectra Averaged: 1 (USB4E01242)
Boxcar Smoothing: 10 (USB4E01242)
Correct for Electrical Dark: No (USB4E01242)
Strobe/Lamp Enabled: No (USB4E01242)
Correct for Detector Non-linearity: No (USB4E01242)
Correct for Stray Light: No (USB4E01242)
Number of Pixels in Processed Spectrum: 3648
>>>>>Begin Processed Spectral Data<<<<<
177.33	-0.0000E00
177.55	-0.0000E00
177.77	-0.0000E00
177.99	0.0000E00
178.21	0.0000E00
178.43	-0.0000E00
178.64	-0.0000E00
178.86	-0.0000E00
179.08	-0.0000E00
179.30	-0.0000E00
179.52	-0.0000E00
179.74	-0.0000E00
179.96	-0.0000E00
180.18	-0.0000E00
180.39	-0.0000E00
180.61	-0.0000E00
180.83	-0.0000E00
181.05	-0.0000E00
181.27	-0.0000E00
181.49	-0.0000E00
181.71	-0.0000E00
181.92	-0.0000E00
182.14	-0.0000E00
182.36	-0.0000E00
182.58	-0.0000E00
182.80	-0.0000E00
183.02	-0.0000E00
183.23	-0.0000E00
183.45	-0.0000E00
183.67	-0.0000E00
183.89	-0.0000E00
184.11	-0.0000E00
184.33	-0.0000E00
184.55	-0.0000E00
184.76	-0.0000E00
184.98	-0.0000E00
185.20	-0.0000E00
185.42	-0.0000E00
185.64	-0.0000E00
185.86	-0.0000E00
186.07	-0.0000E00
186.29	-0.0000E00
186.51	-0.0000E00
186.73	-0.0000E00
186.95	-0.0000E00
187.17	-0.0000E00
187.38	-0.0000E00
187.60	-0.0000E00
187.82	-0.0000E00
188.04	-0.0000E00
188.26	-0.0000E00
188.47	-0.0000E00
188.69	-0.0000E00
188.91	-0.0000E00
189.13	-0.0000E00
189.35	-0.0000E00
189.57	-0.0000E00
189.78	-0.0000E00
190.00	-0.0000E00
190.22	-0.0000E00
190.44	-0.0000E00
190.66	-0.0000E00
190.87	-0.0000E00
191.09	-0.0000E00
191.31	-0.0000E00
191.53	-0.0000E00
191.75	-0.0000E00
191.97	-0.0000E00
192.18	-0.0000E00
192.40	-0.0000E00
192.62	-0.0000E00
192.84	-0.0000E00
193.06	-0.0000E00
193.27	-0.0000E00
193.49	-0.0000E00
193.71	-0.0000E00
193.93	-0.0000E00
194.15	-0.0000E00
194.36	-0.0000E00
194.58	-0.0000E00
194.80	-0.0000E00
195.02	-0.0000E00
195.23	-0.0000E00
195.45	-0.0000E00
195.67	-0.0000E00
195.89	-0.0000E00
196.11	-0.0000E00
196.32	-0.0000E00
196.54	-0.0000E00
196.76	-0.0000E00
196.98	-0.0000E00
197.20	-0.0000E00
197.41	-0.0000E00
197.63	-0.0000E00
197.85	-0.0000E00
198.07	-0.0000E00
198.28	-0.0000E00
198.50	-0.0000E00
198.72	-0.0000E00
198.94	-0.0000E00
199.16	-0.0000E00
199.37	-0.0000E00
199.59	-0.0000E00
199.81	-0.0000E00
200.03	-0.0000E00
200.24	-0.0000E00
200.46	-0.0000E00
200.68	-0.0000E00
200.90	-0.0000E00
201.11	-0.0000E00
201.33	-0.0000E00
201.55	-0.0000E00
201.77	-0.0000E00
201.98	-0.0000E00
202.20	-0.0000E00
202.42	-0.0000E00
202.64	-0.0000E00
202.86	-0.0000E00
203.07	-0.0000E00
203.29	-0.0000E00
203.51	-0.0000E00
203.73	-0.0000E00
203.94	-0.0000E00
204.16	-0.0000E00
204.38	-0.0000E00
204.60	-0.0000E00
204.81	-0.0000E00
205.03	-0.0000E00
205.25	-0.0000E00
205.46	-0.0000E00
205.68	-0.0000E00
205.90	-0.0000E00
206.12	-0.0000E00
206.33	-0.0000E00
206.55	-0.0000E00
206.77	-0.0000E00
206.99	-0.0000E00
207.20	-0.0000E00
207.42	-0.0000E00
207.64	-0.0000E00
207.86	-0.0000E00
208.07	-0.0000E00
208.29	-0.0000E00
208.51	-0.0000E00
208.72	-0.0000E00
208.94	-0.0000E00
209.16	-0.0000E00
209.38	-0.0000E00
209.59	-0.0000E00
209.81	-0.0000E00
210.03	-0.0000E00
210.25	-0.0000E00
210.46	-0.0000E00
210.68	-0.0000E00
210.90	-0.0000E00
211.11	-0.0000E00
211.33	-0.0000E00
211.55	-0.0000E00
211.77	-0.0000E00
211.98	-0.0000E00
212.20	-0.0000E00
212.42	-0.0000E00
212.63	-0.0000E00
212.85	-0.0000E00
213.07	-0.0000E00
213.29	-0.0000E00
213.50	-0.0000E00
213.72	-0.0000E00
213.94	-0.0000E00
214.15	-0.0000E00
214.37	-0.0000E00
214.59	-0.0000E00
214.80	-0.0000E00
215.02	-0.0000E00
215.24	-0.0000E00
215.45	-0.0000E00
215.67	-0.0000E00
215.89	-0.0000E00
216.11	-0.0000E00
216.32	-0.0000E00
216.54	-0.0000E00
216.76	-0.0000E00
216.97	-0.0000E00
217.19	-0.0000E00
217.41	-0.0000E00
217.62	-0.0000E00
217.84	-0.0000E00
218.06	-0.0000E00
218.27	-0.0000E00
218.49	-0.0000E00
218.71	-0.0000E00
218.92	-0.0000E00
219.14	-0.0000E00
219.36	-0.0000E00
219.57	-0.0000E00
219.79	-0.0000E00
220.01	-0.0000E00
220.22	-0.0000E00
220.44	-0.0000E00
220.66	-0.0000E00
220.88	-0.0000E00
221.09	-0.0000E00
221.31	-0.0000E00
221.53	-0.0000E00
221.74	-0.0000E00
221.96	-0.0000E00
222.17	-0.0000E00
222.39	-0.0000E00
222.61	-0.0000E00
222.82	-0.0000E00
223.04	-0.0000E00
223.26	-0.0000E00
223.47	-0.0000E00
223.69	-0.0000E00
223.91	-0.0000E00
224.12	-0.0000E00
224.34	-0.0000E00
224.56	-0.0000E00
224.77	-0.0000E00
224.99	-0.0000E00
225.21	-0.0000E00
225.42	-0.0000E00
225.64	-0.0000E00
225.86	-0.0000E00
226.07	-0.0000E00
226.29	-0.0000E00
226.50	-0.0000E00
226.72	-0.0000E00
226.94	-0.0000E00
227.15	-0.0000E00
227.37	-0.0000E00
227.59	-0.0000E00
227.80	-0.0000E00
228.02	-0.0000E00
228.24	-0.0000E00
228.45	-0.0000E00
228.67	-0.0000E00
228.88	-0.0000E00
229.10	-0.0000E00
229.32	-0.0000E00
229.53	-0.0000E00
229.75	-0.0000E00
229.97	-0.0000E00
230.18	-0.0000E00
230.40	-0.0000E00
230.61	-0.0000E00
230.83	-0.0000E00
231.05	-0.0000E00
231.26	-0.0000E00
231.48	-0.0000E00
231.70	-0.0000E00
231.91	-0.0000E00
232.13	-0.0000E00
232.34	-0.0000E00
232.56	-0.0000E00
232.78	-0.0000E00
232.99	-0.0000E00
233.21	-0.0000E00
233.42	-0.0000E00
233.64	-0.0000E00
233.86	-0.0000E00
234.07	-0.0000E00
234.29	-0.0000E00
234.50	-0.0000E00
234.72	-0.0000E00
234.94	-0.0000E00
235.15	-0.0000E00
235.37	-0.0000E00
235.58	-0.0000E00
235.80	-0.0000E00
236.02	0.0000E00
236.23	-0.0000E00
236.45	-0.0000E00
236.66	-0.0000E00
236.88	-0.0000E00
237.10	-0.0000E00
237.31	-0.0000E00
237.53	-0.0000E00
237.74	-0.0000E00
237.96	-0.0000E00
238.17	-0.0000E00
238.39	-0.0000E00
238.61	-0.0000E00
238.82	-0.0000E00
239.04	-0.0000E00
239.25	-0.0000E00
239.47	-0.0000E00
239.69	-0.0000E00
239.90	-0.0000E00
240.12	-0.0000E00
240.33	-0.0000E00
240.55	-0.0000E00
240.76	-0.0000E00
240.98	-0.0000E00
241.20	-0.0000E00
241.41	-0.0000E00
241.63	-0.0000E00
241.84	-0.0000E00
242.06	-0.0000E00
242.27	-0.0000E00
242.49	-0.0000E00
242.70	-0.0000E00
242.92	-0.0000E00
243.14	-0.0000E00
243.35	-0.0000E00
243.57	-0.0000E00
243.78	-0.0000E00
244.00	-0.0000E00
244.21	-0.0000E00
244.43	-0.0000E00
244.64	-0.0000E00
244.86	-0.0000E00
245.08	-0.0000E00
245.29	-0.0000E00
245.51	-0.0000E00
245.72	-0.0000E00
245.94	-0.0000E00
246.15	-0.0000E00
246.37	-0.0000E00
246.58	-0.0000E00
246.80	-0.0000E00
247.01	-0.0000E00
247.23	-0.0000E00
247.45	-0.0000E00
247.66	-0.0000E00
247.88	-0.0000E00
248.09	-0.0000E00
248.31	-0.0000E00
248.52	-0.0000E00
248.74	-0.0000E00
248.95	-0.0000E00
249.17	-0.0000E00
249.38	-0.0000E00
249.60	-0.0000E00
249.81	-0.0000E00
250.03	-0.0000E00
250.24	-0.0000E00
250.46	-0.0000E00
250.67	-0.0000E00
250.89	-0.0000E00
251.10	-0.0000E00
251.32	-0.0000E00
251.53	-0.0000E00
251.75	-0.0000E00
251.97	-0.0000E00
252.18	-0.0000E00
252.40	-0.0000E00
252.61	-0.0000E00
252.83	-0.0000E00
253.04	-0.0000E00
253.26	-0.0000E00
253.47	-0.0000E00
253.69	-0.0000E00
253.90	-0.0000E00
254.12	-0.0000E00
254.33	-0.0000E00
254.55	-0.0000E00
254.76	-0.0000E00
254.98	-0.0000E00
255.19	-0.0000E00
255.41	-0.0000E00
255.62	-0.0000E00
255.84	-0.0000E00
256.05	-0.0000E00
256.27	-0.0000E00
256.48	-0.0000E00
256.70	-0.0000E00
256.91	-0.0000E00
257.13	-0.0000E00
257.34	-0.0000E00
257.55	-0.0000E00
257.77	-0.0000E00
257.98	-0.0000E00
258.20	-0.0000E00
258.41	-0.0000E00
258.63	-0.0000E00
258.84	-0.0000E00
259.06	-0.0000E00
259.27	-0.0000E00
259.49	-0.0000E00
259.70	-0.0000E00
259.92	-0.0000E00
260.13	-0.0000E00
260.35	-0.0000E00
260.56	-0.0000E00
260.78	-0.0000E00
260.99	-0.0000E00
261.21	-0.0000E00
261.42	-0.0000E00
261.63	-0.0000E00
261.85	-0.0000E00
262.06	-0.0000E00
262.28	-0.0000E00
262.49	-0.0000E00
262.71	-0.0000E00
262.92	-0.0000E00
263.14	-0.0000E00
263.35	-0.0000E00
263.57	-0.0000E00
263.78	-0.0000E00
264.00	-0.0000E00
264.21	-0.0000E00
264.42	-0.0000E00
264.64	-0.0000E00
264.85	-0.0000E00
265.07	-0.0000E00
265.28	-0.0000E00
265.50	-0.0000E00
265.71	-0.0000E00
265.93	-0.0000E00
266.14	-0.0000E00
266.35	0.0000E00
266.57	-0.0000E00
266.78	-0.0000E00
267.00	-0.0000E00
267.21	-0.0000E00
267.43	-0.0000E00
267.64	-0.0000E00
267.85	-0.0000E00
268.07	-0.0000E00
268.28	-0.0000E00
268.50	-0.0000E00
268.71	-0.0000E00
268.93	-0.0000E00
269.14	-0.0000E00
269.35	-0.0000E00
269.57	-0.0000E00
269.78	-0.0000E00
270.00	-0.0000E00
270.21	-0.0000E00
270.43	-0.0000E00
270.64	-0.0000E00
270.85	-0.0000E00
271.07	-0.0000E00
271.28	-0.0000E00
271.50	-0.0000E00
271.71	-0.0000E00
271.92	-0.0000E00
272.14	-0.0000E00
272.35	-0.0000E00
272.57	-0.0000E00
272.78	-0.0000E00
272.99	-0.0000E00
273.21	-0.0000E00
273.42	-0.0000E00
273.64	-0.0000E00
273.85	-0.0000E00
274.07	-0.0000E00
274.28	-0.0000E00
274.49	-0.0000E00
274.71	-0.0000E00
274.92	-0.0000E00
275.13	-0.0000E00
275.35	-0.0000E00
275.56	-0.0000E00
275.78	-0.0000E00
275.99	-0.0000E00
276.20	-0.0000E00
276.42	-0.0000E00
276.63	-0.0000E00
276.85	-0.0000E00
277.06	-0.0000E00
277.27	-0.0000E00
277.49	-0.0000E00
277.70	-0.0000E00
277.92	-0.0000E00
278.13	-0.0000E00
278.34	-0.0000E00
278.56	-0.0000E00
278.77	-0.0000E00
278.98	-0.0000E00
279.20	-0.0000E00
279.41	-0.0000E00
279.63	-0.0000E00
279.84	-0.0000E00
280.05	-0.0000E00
280.27	-0.0000E00
280.48	-0.0000E00
280.69	-0.0000E00
280.91	-0.0000E00
281.12	-0.0000E00
281.33	-0.0000E00
281.55	-0.0000E00
281.76	-0.0000E00
281.98	-0.0000E00
282.19	-0.0000E00
282.40	-0.0000E00
282.62	-0.0000E00
282.83	-0.0000E00
283.04	-0.0000E00
283.26	-0.0000E00
283.47	-0.0000E00
283.68	-0.0000E00
283.90	-0.0000E00
284.11	-0.0000E00
284.32	-0.0000E00
284.54	-0.0000E00
284.75	-0.0000E00
284.96	-0.0000E00
285.18	-0.0000E00
285.39	-0.0000E00
285.60	-0.0000E00
285.82	-0.0000E00
286.03	-0.0000E00
286.24	-0.0000E00
286.46	-0.0000E00
286.67	-0.0000E00
286.88	-0.0000E00
287.10	-0.0000E00
287.31	-0.0000E00
287.52	-0.0000E00
287.74	-0.0000E00
287.95	-0.0000E00
288.16	-0.0000E00
288.38	-0.0000E00
288.59	-0.0000E00
288.80	-0.0000E00
289.02	-0.0000E00
289.23	-0.0000E00
289.44	-0.0000E00
289.66	-0.0000E00
289.87	-0.0000E00
290.08	-0.0000E00
290.30	-0.0000E00
290.51	-0.0000E00
290.72	-0.0000E00
290.94	-0.0000E00
291.15	-0.0000E00
291.36	-0.0000E00
291.57	-0.0000E00
291.79	-0.0000E00
292.00	-0.0000E00
292.21	-0.0000E00
292.43	-0.0000E00
292.64	-0.0000E00
292.85	-0.0000E00
293.07	-0.0000E00
293.28	-0.0000E00
293.49	-0.0000E00
293.70	-0.0000E00
293.92	-0.0000E00
294.13	-0.0000E00
294.34	-0.0000E00
294.56	-0.0000E00
294.77	-0.0000E00
294.98	-0.0000E00
295.20	-0.0000E00
295.41	-0.0000E00
295.62	-0.0000E00
295.83	-0.0000E00
296.05	-0.0000E00
296.26	-0.0000E00
296.47	-0.0000E00
296.69	-0.0000E00
296.90	-0.0000E00
297.11	-0.0000E00
297.32	-0.0000E00
297.54	-0.0000E00
297.75	-0.0000E00
297.96	-0.0000E00
298.17	-0.0000E00
298.39	-0.0000E00
298.60	-0.0000E00
298.81	-0.0000E00
299.03	-0.0000E00
299.24	-0.0000E00
299.45	-0.0000E00
299.66	-0.0000E00
299.88	-0.0000E00
300.09	-1.3568E-03
300.30	-1.6319E-03
300.51	-6.0595E-04
300.73	-1.2680E-03
300.94	-1.0463E-03
301.15	-6.9956E-04
301.36	-1.6798E-03
301.58	-1.2058E-03
301.79	1.5117E-04
302.00	-1.2386E-03
302.21	-1.1782E-03
302.43	-4.1378E-04
302.64	-1.4132E-03
302.85	-4.0378E-04
303.06	-1.3050E-03
303.28	-5.1885E-04
303.49	-1.2366E-03
303.70	8.2131E-05
303.91	-7.4849E-04
304.13	-1.2151E-03
304.34	-5.5794E-04
304.55	2.1468E-04
304.76	-1.3579E-03
304.98	-7.1453E-04
305.19	1.5616E-04
305.40	-1.0012E-03
305.61	-4.4715E-05
305.82	-6.3592E-04
306.04	1.6465E-04
306.25	-8.2995E-04
306.46	4.6538E-04
306.67	-4.1747E-04
306.89	-2.7260E-04
307.10	4.4736E-04
307.31	4.4669E-04
307.52	1.5437E-04
307.74	1.1106E-03
307.95	1.0707E-03
308.16	-4.0301E-04
308.37	7.9088E-04
308.58	6.1346E-04
308.80	1.3942E-03
309.01	1.2885E-03
309.22	1.6565E-04
309.43	6.5699E-04
309.64	1.5319E-03
309.86	1.9608E-03
310.07	1.2330E-03
310.28	1.8290E-03
310.49	2.2074E-03
310.70	1.4945E-03
310.92	2.2202E-03
311.13	1.6462E-03
311.34	2.2805E-03
311.55	2.5143E-03
311.76	2.1287E-03
311.98	2.5228E-03
312.19	3.0034E-03
312.40	2.1798E-03
312.61	2.4737E-03
312.82	2.8373E-03
313.04	1.9826E-03
313.25	3.0703E-03
313.46	2.4536E-03
313.67	2.4974E-03
313.88	2.5228E-03
314.10	2.4129E-03
314.31	2.4408E-03
314.52	2.5529E-03
314.73	2.6054E-03
314.94	2.4925E-03
315.16	3.6366E-03
315.37	3.5827E-03
315.58	3.6761E-03
315.79	3.4991E-03
316.00	3.4784E-03
316.21	3.4318E-03
316.43	2.8429E-03
316.64	3.0932E-03
316.85	2.5078E-03
317.06	3.3901E-03
317.27	3.5845E-03
317.48	3.1418E-03
317.70	3.3539E-03
317.91	3.6987E-03
318.12	3.5233E-03
318.33	3.3422E-03
318.54	3.6486E-03
318.75	4.6590E-03
318.97	3.9810E-03
319.18	4.1298E-03
319.39	4.1607E-03
319.60	3.9301E-03
319.81	4.1554E-03
320.02	4.2330E-03
320.24	4.0823E-03
320.45	3.9603E-03
320.66	3.9760E-03
320.87	4.0777E-03
321.08	4.2761E-03
321.29	3.9303E-03
321.50	3.7890E-03
321.72	3.5443E-03
321.93	3.9807E-03
322.14	4.5398E-03
322.35	3.8727E-03
322.56	4.5739E-03
322.77	5.1130E-03
322.98	4.8080E-03
323.20	4.8827E-03
323.41	4.6512E-03
323.62	4.7243E-03
323.83	4.5652E-03
324.04	4.5042E-03
324.25	4.4003E-03
324.46	5.1563E-03
324.67	4.6801E-03
324.89	4.6427E-03
325.10	5.1009E-03
325.31	5.3861E-03
325.52	6.3532E-03
325.73	6.1477E-03
325.94	6.3091E-03
326.15	5.8447E-03
326.36	6.3213E-03
326.58	7.8406E-03
326.79	6.8428E-03
327.00	5.5019E-03
327.21	6.4345E-03
327.42	6.5851E-03
327.63	6.9453E-03
327.84	7.3417E-03
328.05	7.1265E-03
328.26	7.6584E-03
328.48	7.0635E-03
328.69	9.2588E-03
328.90	7.6078E-03
329.11	7.8598E-03
329.32	7.9274E-03
329.53	6.9159E-03
329.74	7.8762E-03
329.95	7.1569E-03
330.16	6.9223E-03
330.37	7.6331E-03
330.59	6.9779E-03
330.80	8.5481E-03
331.01	8.3903E-03
331.22	8.4636E-03
331.43	8.2047E-03
331.64	6.9243E-03
331.85	7.8505E-03
332.06	7.6397E-03
332.27	8.1284E-03
332.48	9.2607E-03
332.69	6.6761E-03
332.91	8.5940E-03
333.12	7.5119E-03
333.33	9.2404E-03
333.54	7.7470E-03
333.75	6.2427E-03
333.96	7.3687E-03
334.17	6.2627E-03
334.38	7.8404E-03
334.59	9.5928E-03
334.80	6.5448E-03
335.01	6.8348E-03
335.22	6.7757E-03
335.43	7.4598E-03
335.64	7.6784E-03
335.86	8.8436E-03
336.07	7.2274E-03
336.28	6.0178E-03
336.49	9.1817E-03
336.70	7.2622E-03
336.91	7.9394E-03
337.12	7.2425E-03
337.33	6.8636E-03
337.54	6.9659E-03
337.75	7.0619E-03
337.96	7.5862E-03
338.17	7.7622E-03
338.38	7.9417E-03
338.59	7.5442E-03
338.80	6.2319E-03
339.01	8.3346E-03
339.22	8.2132E-03
339.43	8.0693E-03
339.65	8.4086E-03
339.86	7.6351E-03
340.07	8.0095E-03
340.28	8.4842E-03
340.49	6.8738E-03
340.70	7.8498E-03
340.91	7.8152E-03
341.12	7.6594E-03
341.33	8.3617E-03
341.54	8.1488E-03
341.75	7.5067E-03
341.96	7.6450E-03
342.17	8.1809E-03
342.38	6.8181E-03
342.59	7.0107E-03
342.80	8.0040E-03
343.01	8.3880E-03
343.22	8.1697E-03
343.43	7.4059E-03
343.64	8.1234E-03
343.85	6.9942E-03
344.06	8.4496E-03
344.27	8.4343E-03
344.48	9.2785E-03
344.69	7.9048E-03
344.90	7.6849E-03
345.11	8.4040E-03
345.32	8.0605E-03
345.53	7.1696E-03
345.74	8.1511E-03
345.95	7.0827E-03
346.16	7.5013E-03
346.37	7.8483E-03
346.58	8.1774E-03
346.79	7.7701E-03
347.00	8.8364E-03
347.21	9.0821E-03
347.42	8.0290E-03
347.63	7.2434E-03
347.84	8.2836E-03
348.05	8.6484E-03
348.26	7.8843E-03
348.47	8.4965E-03
348.68	7.9067E-03
348.89	6.9212E-03
349.10	8.5116E-03
349.31	1.0258E-02
349.52	7.9579E-03
349.73	8.5935E-03
349.94	8.7228E-03
350.15	8.2463E-03
350.36	8.8537E-03
350.57	9.0077E-03
350.78	9.3524E-03
350.99	9.3755E-03
351.20	9.4161E-03
351.41	1.0005E-02
351.62	8.7282E-03
351.83	8.6582E-03
352.04	9.0119E-03
352.25	8.7470E-03
352.46	8.5113E-03
352.67	8.6991E-03
352.88	8.7664E-03
353.09	7.7133E-03
353.30	8.0309E-03
353.51	8.7628E-03
353.72	9.5722E-03
353.93	7.9768E-03
354.14	8.3048E-03
354.35	8.9415E-03
354.56	8.7932E-03
354.77	9.6201E-03
354.98	8.5994E-03
355.19	8.6428E-03
355.39	7.8792E-03
355.60	7.8140E-03
355.81	8.0323E-03
356.02	9.0745E-03
356.23	7.3468E-03
356.44	6.7153E-03
356.65	8.9021E-03
356.86	8.2230E-03
357.07	7.8883E-03
357.28	8.5087E-03
357.49	8.4675E-03
357.70	8.8190E-03
357.91	7.4359E-03
358.12	7.0627E-03
358.33	7.9941E-03
358.54	8.5338E-03
358.75	8.0478E-03
358.96	8.2375E-03
359.16	6.8086E-03
359.37	8.9053E-03
359.58	8.4714E-03
359.79	7.6283E-03
360.00	8.2904E-03
360.21	8.8814E-03
360.42	7.7140E-03
360.63	9.1287E-03
360.84	9.7860E-03
361.05	7.8046E-03
361.26	7.9330E-03
361.47	9.4179E-03
361.68	8.6347E-03
361.88	8.5242E-03
362.09	8.5389E-03
362.30	9.5815E-03
362.51	8.2534E-03
362.72	9.1608E-03
362.93	9.1887E-03
363.14	9.7003E-03
363.35	9.3512E-03
363.56	8.7765E-03
363.77	9.4505E-03
363.98	9.7261E-03
364.18	1.0760E-02
364.39	1.0338E-02
364.60	1.0365E-02
364.81	1.0834E-02
365.02	1.0277E-02
365.23	1.0931E-02
365.44	1.0605E-02
365.65	1.0064E-02
365.86	9.9120E-03
366.07	1.0730E-02
366.27	1.0990E-02
366.48	1.1279E-02
366.69	1.0841E-02
366.90	1.0425E-02
367.11	1.0520E-02
367.32	1.0463E-02
367.53	1.0939E-02
367.74	9.8530E-03
367.95	9.8172E-03
368.15	1.0722E-02
368.36	1.0401E-02
368.57	9.5473E-03
368.78	1.0553E-02
368.99	1.0429E-02
369.20	9.6648E-03
369.41	1.1565E-02
369.62	1.0306E-02
369.82	1.1067E-02
370.03	9.5112E-03
370.24	1.1039E-02
370.45	9.4777E-03
370.66	8.7760E-03
370.87	9.2879E-03
371.08	9.0632E-03
371.28	9.1950E-03
371.49	9.2748E-03
371.70	8.9675E-03
371.91	8.6512E-03
372.12	8.5504E-03
372.33	9.0081E-03
372.54	8.9693E-03
372.74	9.1794E-03
372.95	7.9573E-03
373.16	9.2620E-03
373.37	8.8728E-03
373.58	8.1882E-03
373.79	9.0852E-03
374.00	8.0878E-03
374.20	9.3691E-03
374.41	9.3748E-03
374.62	8.3423E-03
374.83	8.6565E-03
375.04	9.2518E-03
375.25	9.4760E-03
375.45	8.5926E-03
375.66	9.7421E-03
375.87	9.2951E-03
376.08	1.0438E-02
376.29	1.0389E-02
376.50	9.9436E-03
376.70	9.1061E-03
376.91	9.6346E-03
377.12	9.5823E-03
377.33	8.7675E-03
377.54	9.2317E-03
377.75	1.0366E-02
377.95	9.6973E-03
378.16	9.4532E-03
378.37	8.7672E-03
378.58	9.6650E-03
378.79	8.7930E-03
379.00	9.6364E-03
379.20	8.7040E-03
379.41	9.3027E-03
379.62	9.1258E-03
379.83	8.5226E-03
380.04	8.4604E-03
380.24	8.8145E-03
380.45	7.0561E-03
380.66	7.8240E-03
380.87	8.1611E-03
381.08	8.1889E-03
381.28	7.2439E-03
381.49	7.7491E-03
381.70	7.2200E-03
381.91	7.3640E-03
382.12	7.6765E-03
382.32	7.0442E-03
382.53	7.8550E-03
382.74	6.8274E-03
382.95	7.2503E-03
383.16	7.4880E-03
383.36	6.3422E-03
383.57	7.3605E-03
383.78	7.6623E-03
383.99	6.8165E-03
384.20	7.2330E-03
384.40	7.3597E-03
384.61	8.2856E-03
384.82	8.3633E-03
385.03	8.3703E-03
385.23	8.2512E-03
385.44	7.9310E-03
385.65	8.7657E-03
385.86	7.9692E-03
386.07	9.7283E-03
386.27	7.6319E-03
386.48	8.1633E-03
386.69	8.8821E-03
386.90	7.5363E-03
387.10	7.9999E-03
387.31	9.1171E-03
387.52	8.2976E-03
387.73	9.0366E-03
387.94	9.4379E-03
388.14	8.4624E-03
388.35	9.0369E-03
388.56	1.0370E-02
388.77	9.4912E-03
388.97	9.8391E-03
389.18	9.8651E-03
389.39	9.4183E-03
389.60	9.8249E-03
389.80	1.0294E-02
390.01	9.9885E-03
390.22	9.7260E-03
390.43	8.8004E-03
390.63	9.1475E-03
390.84	9.1594E-03
391.05	9.8782E-03
391.26	9.1279E-03
391.46	8.7530E-03
391.67	8.6887E-03
391.88	7.6086E-03
392.09	7.6866E-03
392.29	8.8427E-03
392.50	7.8954E-03
392.71	8.3474E-03
392.92	8.5445E-03
393.12	8.4568E-03
393.33	8.8860E-03
393.54	7.9722E-03
393.74	7.3244E-03
393.95	7.6932E-03
394.16	8.8885E-03
394.37	8.2699E-03
394.57	8.1075E-03
394.78	8.7314E-03
394.99	8.7326E-03
395.19	8.2683E-03
395.40	8.2801E-03
395.61	8.3394E-03
395.82	9.3879E-03
396.02	8.7361E-03
396.23	9.6422E-03
396.44	1.0160E-02
396.65	8.9054E-03
396.85	1.0463E-02
397.06	1.0281E-02
397.27	1.0265E-02
397.47	1.0910E-02
397.68	1.0772E-02
397.89	1.0426E-02
398.09	1.0588E-02
398.30	1.0831E-02
398.51	1.0809E-02
398.72	1.1365E-02
398.92	1.2336E-02
399.13	1.2231E-02
399.34	1.3504E-02
399.54	1.3520E-02
399.75	1.3413E-02
399.96	1.2268E-02
400.16	1.2741E-02
400.37	1.3303E-02
400.58	1.3303E-02
400.78	1.3767E-02
400.99	1.2458E-02
401.20	1.4071E-02
401.41	1.3945E-02
401.61	1.2920E-02
401.82	1.3589E-02
402.03	1.3087E-02
402.23	1.3052E-02
402.44	1.3678E-02
402.65	1.3147E-02
402.85	1.3270E-02
403.06	1.3043E-02
403.27	1.2873E-02
403.47	1.3304E-02
403.68	1.2672E-02
403.89	1.3519E-02
404.09	1.3121E-02
404.30	1.2294E-02
404.51	1.3110E-02
404.71	1.3204E-02
404.92	1.3355E-02
405.13	1.2170E-02
405.33	1.2527E-02
405.54	1.2362E-02
405.75	1.3046E-02
405.95	1.2970E-02
406.16	1.1645E-02
406.37	1.2872E-02
406.57	1.2682E-02
406.78	1.3206E-02
406.99	1.2905E-02
407.19	1.3404E-02
407.40	1.3256E-02
407.60	1.3094E-02
407.81	1.3082E-02
408.02	1.2426E-02
408.22	1.2377E-02
408.43	1.3401E-02
408.64	1.2907E-02
408.84	1.2914E-02
409.05	1.1736E-02
409.26	1.3579E-02
409.46	1.3030E-02
409.67	1.3029E-02
409.87	1.3469E-02
410.08	1.2730E-02
410.29	1.3702E-02
410.49	1.2603E-02
410.70	1.3403E-02
410.91	1.2993E-02
411.11	1.3725E-02
411.32	1.3220E-02
411.52	1.2426E-02
411.73	1.3651E-02
411.94	1.3337E-02
412.14	1.3946E-02
412.35	1.3073E-02
412.56	1.3819E-02
412.76	1.3882E-02
412.97	1.2818E-02
413.17	1.3686E-02
413.38	1.4129E-02
413.59	1.3284E-02
413.79	1.3372E-02
414.00	1.3854E-02
414.20	1.4218E-02
414.41	1.2912E-02
414.62	1.4134E-02
414.82	1.3303E-02
415.03	1.2542E-02
415.23	1.3822E-02
415.44	1.3076E-02
415.65	1.3599E-02
415.85	1.2893E-02
416.06	1.3793E-02
416.26	1.3591E-02
416.47	1.3428E-02
416.68	1.3966E-02
416.88	1.4263E-02
417.09	1.2358E-02
417.29	1.3352E-02
417.50	1.3683E-02
417.71	1.3481E-02
417.91	1.3290E-02
418.12	1.3370E-02
418.32	1.3703E-02
418.53	1.3789E-02
418.73	1.2541E-02
418.94	1.2872E-02
419.15	1.2816E-02
419.35	1.3284E-02
419.56	1.3096E-02
419.76	1.1977E-02
419.97	1.3829E-02
420.17	1.2641E-02
420.38	1.1979E-02
420.59	1.3240E-02
420.79	1.3744E-02
421.00	1.2357E-02
421.20	1.1866E-02
421.41	1.2595E-02
421.61	1.2329E-02
421.82	1.2907E-02
422.02	1.2552E-02
422.23	1.1124E-02
422.44	1.3224E-02
422.64	1.2006E-02
422.85	1.2432E-02
423.05	1.2602E-02
423.26	1.2566E-02
423.46	1.2450E-02
423.67	1.1857E-02
423.87	1.2246E-02
424.08	1.2045E-02
424.29	1.2223E-02
424.49	1.2934E-02
424.70	1.1417E-02
424.90	1.2618E-02
425.11	1.2849E-02
425.31	1.2690E-02
425.52	1.2760E-02
425.72	1.2005E-02
425.93	1.2340E-02
426.13	1.2105E-02
426.34	1.1889E-02
426.54	1.2312E-02
426.75	1.2035E-02
426.95	1.2241E-02
427.16	1.2268E-02
427.36	1.1918E-02
427.57	1.0990E-02
427.78	1.1343E-02
427.98	1.1208E-02
428.19	1.1626E-02
428.39	1.1000E-02
428.60	1.0953E-02
428.80	1.0977E-02
429.01	1.1868E-02
429.21	1.0195E-02
429.42	1.1752E-02
429.62	1.1623E-02
429.83	1.1047E-02
430.03	1.0305E-02
430.24	1.1276E-02
430.44	1.0285E-02
430.65	1.1120E-02
430.85	1.1445E-02
431.06	1.1011E-02
431.26	1.1458E-02
431.47	1.0453E-02
431.67	1.2387E-02
431.88	1.1677E-02
432.08	1.1875E-02
432.29	1.2224E-02
432.49	1.1600E-02
432.70	1.1683E-02
432.90	1.2663E-02
433.11	1.2267E-02
433.31	1.1076E-02
433.52	1.2370E-02
433.72	1.1937E-02
433.93	1.2167E-02
434.13	1.2164E-02
434.34	1.3107E-02
434.54	1.1812E-02
434.74	1.2373E-02
434.95	1.2458E-02
435.15	1.2391E-02
435.36	1.2418E-02
435.56	1.1826E-02
435.77	1.2489E-02
435.97	1.1953E-02
436.18	1.3507E-02
436.38	1.2827E-02
436.59	1.1965E-02
436.79	1.2896E-02
437.00	1.2962E-02
437.20	1.2206E-02
437.41	1.1873E-02
437.61	1.2852E-02
437.81	1.2373E-02
438.02	1.2144E-02
438.22	1.2445E-02
438.43	1.1967E-02
438.63	1.3124E-02
438.84	1.2386E-02
439.04	1.2224E-02
439.25	1.2466E-02
439.45	1.1942E-02
439.66	1.2069E-02
439.86	1.2287E-02
440.06	1.3390E-02
440.27	1.2276E-02
440.47	1.1964E-02
440.68	1.3021E-02
440.88	1.2807E-02
441.09	1.3132E-02
441.29	1.3406E-02
441.49	1.2991E-02
441.70	1.3806E-02
441.90	1.2779E-02
442.11	1.3569E-02
442.31	1.3871E-02
442.52	1.3517E-02
442.72	1.2531E-02
442.92	1.2725E-02
443.13	1.3453E-02
443.33	1.2747E-02
443.54	1.3069E-02
443.74	1.3226E-02
443.95	1.3477E-02
444.15	1.3062E-02
444.35	1.3606E-02
444.56	1.2793E-02
444.76	1.2494E-02
444.97	1.4411E-02
445.17	1.3613E-02
445.37	1.4313E-02
445.58	1.2557E-02
445.78	1.3176E-02
445.99	1.2616E-02
446.19	1.2740E-02
446.39	1.2817E-02
446.60	1.2469E-02
446.80	1.2705E-02
447.01	1.3284E-02
447.21	1.4000E-02
447.41	1.2649E-02
447.62	1.3787E-02
447.82	1.3140E-02
448.03	1.3794E-02
448.23	1.3670E-02
448.43	1.3618E-02
448.64	1.4119E-02
448.84	1.3790E-02
449.05	1.3185E-02
449.25	1.3938E-02
449.45	1.3360E-02
449.66	1.3664E-02
449.86	1.3495E-02
450.07	1.2976E-02
450.27	1.3807E-02
450.47	1.3111E-02
450.68	1.3751E-02
450.88	1.3031E-02
451.08	1.3448E-02
451.29	1.3161E-02
451.49	1.3812E-02
451.70	1.3544E-02
451.90	1.4036E-02
452.10	1.3607E-02
452.31	1.2593E-02
452.51	1.3288E-02
452.71	1.3038E-02
452.92	1.3232E-02
453.12	1.3701E-02
453.32	1.3371E-02
453.53	1.2448E-02
453.73	1.2402E-02
453.93	1.2413E-02
454.14	1.3433E-02
454.34	1.3434E-02
454.55	1.3540E-02
454.75	1.3412E-02
454.95	1.2228E-02
455.16	1.4142E-02
455.36	1.2508E-02
455.56	1.3996E-02
455.77	1.3754E-02
455.97	1.3550E-02
456.17	1.2795E-02
456.38	1.3670E-02
456.58	1.4115E-02
456.78	1.3315E-02
456.99	1.2246E-02
457.19	1.3369E-02
457.39	1.3090E-02
457.60	1.3446E-02
457.80	1.3197E-02
458.00	1.3000E-02
458.21	1.3904E-02
458.41	1.3692E-02
458.61	1.2983E-02
458.82	1.2876E-02
459.02	1.2538E-02
459.22	1.3984E-02
459.43	1.3755E-02
459.63	1.3485E-02
459.83	1.2546E-02
460.03	1.3395E-02
460.24	1.3533E-02
460.44	1.2719E-02
460.64	1.2563E-02
460.85	1.3634E-02
461.05	1.2977E-02
461.25	1.3215E-02
461.46	1.2724E-02
461.66	1.2257E-02
461.86	1.2979E-02
462.07	1.3420E-02
462.27	1.2959E-02
462.47	1.3605E-02
462.67	1.2855E-02
462.88	1.3558E-02
463.08	1.2208E-02
463.28	1.2985E-02
463.49	1.3263E-02
463.69	1.3222E-02
463.89	1.2958E-02
464.09	1.3127E-02
464.30	1.2829E-02
464.50	1.3562E-02
464.70	1.3226E-02
464.91	1.2257E-02
465.11	1.2370E-02
465.31	1.2186E-02
465.51	1.2792E-02
465.72	1.2927E-02
465.92	1.2635E-02
466.12	1.1967E-02
466.33	1.2631E-02
466.53	1.2675E-02
466.73	1.2638E-02
466.93	1.2846E-02
467.14	1.1956E-02
467.34	1.3748E-02
467.54	1.2941E-02
467.74	1.2622E-02
467.95	1.2487E-02
468.15	1.2130E-02
468.35	1.2808E-02
468.55	1.3167E-02
468.76	1.2775E-02
468.96	1.1994E-02
469.16	1.2246E-02
469.37	1.2157E-02
469.57	1.2791E-02
469.77	1.2210E-02
469.97	1.2380E-02
470.18	1.2958E-02
470.38	1.2817E-02
470.58	1.2292E-02
470.78	1.2684E-02
470.99	1.2907E-02
471.19	1.1999E-02
471.39	1.2379E-02
471.59	1.1427E-02
471.79	1.2033E-02
472.00	1.2159E-02
472.20	1.2369E-02
472.40	1.1546E-02
472.60	1.2225E-02
472.81	1.3064E-02
473.01	1.2813E-02
473.21	1.1975E-02
473.41	1.1086E-02
473.62	1.2252E-02
473.82	1.2722E-02
474.02	1.2248E-02
474.22	1.2233E-02
474.42	1.2996E-02
474.63	1.2419E-02
474.83	1.2381E-02
475.03	1.2211E-02
475.23	1.2611E-02
475.44	1.2680E-02
475.64	1.1985E-02
475.84	1.2403E-02
476.04	1.2023E-02
476.24	1.2627E-02
476.45	1.2582E-02
476.65	1.1941E-02
476.85	1.1943E-02
477.05	1.2461E-02
477.25	1.2816E-02
477.46	1.2449E-02
477.66	1.2327E-02
477.86	1.2784E-02
478.06	1.2032E-02
478.26	1.2537E-02
478.47	1.2362E-02
478.67	1.3836E-02
478.87	1.2332E-02
479.07	1.1943E-02
479.27	1.2688E-02
479.47	1.2677E-02
479.68	1.2688E-02
479.88	1.2758E-02
480.08	1.2485E-02
480.28	1.2721E-02
480.48	1.2399E-02
480.69	1.3027E-02
480.89	1.2084E-02
481.09	1.2509E-02
481.29	1.3108E-02
481.49	1.1539E-02
481.69	1.2612E-02
481.90	1.2518E-02
482.10	1.2413E-02
482.30	1.2307E-02
482.50	1.2370E-02
482.70	1.1995E-02
482.90	1.1998E-02
483.11	1.2122E-02
483.31	1.2060E-02
483.51	1.1318E-02
483.71	1.1497E-02
483.91	1.1545E-02
484.11	1.1764E-02
484.32	1.1526E-02
484.52	1.1802E-02
484.72	1.1613E-02
484.92	1.1302E-02
485.12	1.1154E-02
485.32	1.1127E-02
485.52	1.0843E-02
485.73	1.0631E-02
485.93	1.0615E-02
486.13	1.0644E-02
486.33	1.0862E-02
486.53	1.1165E-02
486.73	1.1332E-02
486.93	1.0858E-02
487.14	1.1575E-02
487.34	1.1309E-02
487.54	1.1390E-02
487.74	1.1507E-02
487.94	1.0572E-02
488.14	1.1304E-02
488.34	1.1242E-02
488.54	1.1232E-02
488.75	1.1025E-02
488.95	1.1199E-02
489.15	1.0996E-02
489.35	1.0839E-02
489.55	1.1038E-02
489.75	1.1254E-02
489.95	1.0976E-02
490.15	1.1060E-02
490.36	1.1339E-02
490.56	1.1038E-02
490.76	1.1456E-02
490.96	1.1078E-02
491.16	1.1358E-02
491.36	1.1220E-02
491.56	1.1194E-02
491.76	1.0448E-02
491.96	1.1178E-02
492.17	1.0987E-02
492.37	1.1314E-02
492.57	1.1563E-02
492.77	1.1625E-02
492.97	1.1753E-02
493.17	1.1526E-02
493.37	1.1527E-02
493.57	1.1340E-02
493.77	1.1219E-02
493.97	1.1951E-02
494.17	1.1417E-02
494.38	1.1691E-02
494.58	1.1353E-02
494.78	1.1273E-02
494.98	1.1302E-02
495.18	1.1538E-02
495.38	1.1498E-02
495.58	1.1660E-02
495.78	1.1741E-02
495.98	1.1911E-02
496.18	1.1788E-02
496.38	1.1461E-02
496.58	1.1068E-02
496.78	1.1870E-02
496.99	1.1370E-02
497.19	1.1604E-02
497.39	1.1835E-02
497.59	1.1524E-02
497.79	1.1065E-02
497.99	1.1589E-02
498.19	1.1590E-02
498.39	1.1720E-02
498.59	1.1216E-02
498.79	1.1163E-02
498.99	1.1215E-02
499.19	1.1454E-02
499.39	1.1507E-02
499.59	1.1043E-02
499.79	1.1060E-02
499.99	1.1028E-02
500.19	1.1379E-02
500.40	1.1162E-02
500.60	1.1309E-02
500.80	1.1397E-02
501.00	1.1065E-02
501.20	1.1062E-02
501.40	1.1450E-02
501.60	1.1178E-02
501.80	1.1180E-02
502.00	1.1434E-02
502.20	1.1270E-02
502.40	1.1302E-02
502.60	1.0998E-02
502.80	1.1881E-02
503.00	1.1671E-02
503.20	1.1473E-02
503.40	1.1358E-02
503.60	1.1626E-02
503.80	1.2047E-02
504.00	1.1816E-02
504.20	1.2179E-02
504.40	1.2141E-02
504.60	1.2424E-02
504.80	1.2458E-02
505.00	1.2383E-02
505.20	1.2766E-02
505.40	1.2583E-02
505.60	1.2516E-02
505.80	1.2771E-02
506.00	1.2819E-02
506.20	1.2779E-02
506.40	1.2805E-02
506.60	1.2882E-02
506.80	1.2638E-02
507.00	1.3011E-02
507.20	1.3209E-02
507.40	1.3467E-02
507.60	1.3104E-02
507.80	1.3300E-02
508.00	1.3432E-02
508.20	1.3898E-02
508.40	1.3701E-02
508.60	1.3407E-02
508.80	1.3239E-02
509.00	1.4251E-02
509.20	1.3948E-02
509.40	1.3825E-02
509.60	1.4094E-02
509.80	1.3925E-02
510.00	1.4567E-02
510.20	1.4490E-02
510.40	1.4693E-02
510.60	1.4442E-02
510.80	1.4350E-02
511.00	1.4370E-02
511.20	1.5139E-02
511.40	1.4687E-02
511.60	1.4825E-02
511.80	1.5024E-02
512.00	1.5109E-02
512.20	1.5373E-02
512.40	1.5088E-02
512.60	1.5260E-02
512.80	1.5320E-02
513.00	1.5680E-02
513.20	1.5556E-02
513.40	1.5325E-02
513.59	1.5172E-02
513.79	1.5616E-02
513.99	1.5490E-02
514.19	1.5660E-02
514.39	1.5457E-02
514.59	1.5865E-02
514.79	1.5542E-02
514.99	1.5487E-02
515.19	1.5763E-02
515.39	1.5896E-02
515.59	1.6012E-02
515.79	1.5425E-02
515.99	1.6243E-02
516.19	1.6150E-02
516.39	1.6045E-02
516.59	1.6237E-02
516.79	1.6713E-02
516.98	1.6108E-02
517.18	1.6823E-02
517.38	1.6832E-02
517.58	1.6947E-02
517.78	1.6996E-02
517.98	1.7176E-02
518.18	1.7383E-02
518.38	1.8163E-02
518.58	1.7738E-02
518.78	1.7770E-02
518.98	1.7918E-02
519.18	1.8337E-02
519.38	1.8769E-02
519.57	1.8785E-02
519.77	1.8603E-02
519.97	1.9179E-02
520.17	1.9186E-02
520.37	1.9305E-02
520.57	1.9738E-02
520.77	2.0006E-02
520.97	2.0056E-02
521.17	2.0069E-02
521.37	2.0525E-02
521.57	2.0872E-02
521.76	2.0580E-02
521.96	2.1128E-02
522.16	2.1034E-02
522.36	2.1731E-02
522.56	2.1035E-02
522.76	2.1551E-02
522.96	2.2093E-02
523.16	2.1897E-02
523.36	2.2349E-02
523.55	2.1961E-02
523.75	2.2110E-02
523.95	2.2219E-02
524.15	2.1982E-02
524.35	2.2331E-02
524.55	2.2508E-02
524.75	2.2829E-02
524.95	2.3006E-02
525.14	2.2818E-02
525.34	2.2739E-02
525.54	2.2485E-02
525.74	2.2924E-02
525.94	2.3096E-02
526.14	2.3527E-02
526.34	2.3551E-02
526.54	2.4043E-02
526.73	2.3485E-02
526.93	2.4146E-02
527.13	2.4292E-02
527.33	2.4461E-02
527.53	2.4805E-02
527.73	2.4557E-02
527.93	2.5098E-02
528.12	2.4624E-02
528.32	2.5044E-02
528.52	2.5689E-02
528.72	2.6000E-02
528.92	2.5780E-02
529.12	2.5870E-02
529.32	2.6094E-02
529.51	2.6409E-02
529.71	2.6525E-02
529.91	2.6537E-02
530.11	2.6940E-02
530.31	2.7456E-02
530.51	2.6899E-02
530.70	2.6850E-02
530.90	2.7366E-02
531.10	2.7177E-02
531.30	2.7540E-02
531.50	2.7518E-02
531.70	2.7708E-02
531.89	2.7383E-02
532.09	2.7539E-02
532.29	2.7510E-02
532.49	2.8167E-02
532.69	2.8045E-02
532.88	2.7978E-02
533.08	2.7661E-02
533.28	2.8038E-02
533.48	2.8613E-02
533.68	2.8350E-02
533.88	2.9061E-02
534.07	2.9047E-02
534.27	2.9061E-02
534.47	2.9425E-02
534.67	2.8715E-02
534.87	2.9464E-02
535.06	2.9445E-02
535.26	2.9233E-02
535.46	2.9081E-02
535.66	3.0108E-02
535.86	2.9400E-02
536.05	2.9390E-02
536.25	2.9620E-02
536.45	2.9796E-02
536.65	2.9732E-02
536.85	2.9485E-02
537.04	2.9819E-02
537.24	3.0366E-02
537.44	2.9305E-02
537.64	2.9134E-02
537.83	2.9987E-02
538.03	3.0063E-02
538.23	3.0416E-02
538.43	3.0236E-02
538.63	2.9655E-02
538.82	2.9922E-02
539.02	3.0002E-02
539.22	3.0353E-02
539.42	2.9849E-02
539.61	3.0330E-02
539.81	3.0427E-02
540.01	2.9962E-02
540.21	3.0304E-02
540.41	3.0173E-02
540.60	3.0313E-02
540.80	3.0324E-02
541.00	3.0360E-02
541.20	3.0881E-02
541.39	3.0787E-02
541.59	3.0757E-02
541.79	3.0894E-02
541.99	3.1429E-02
542.18	3.1163E-02
542.38	3.1121E-02
542.58	3.1176E-02
542.78	3.1484E-02
542.97	3.0966E-02
543.17	3.1582E-02
543.37	3.1241E-02
543.57	3.2017E-02
543.76	3.2534E-02
543.96	3.2351E-02
544.16	3.1856E-02
544.36	3.2194E-02
544.55	3.2905E-02
544.75	3.2587E-02
544.95	3.2952E-02
545.14	3.1969E-02
545.34	3.3143E-02
545.54	3.2619E-02
545.74	3.2821E-02
545.93	3.3271E-02
546.13	3.3132E-02
546.33	3.2726E-02
546.53	3.2652E-02
546.72	3.3502E-02
546.92	3.3503E-02
547.12	3.3102E-02
547.31	3.3438E-02
547.51	3.3178E-02
547.71	3.3702E-02
547.91	3.3670E-02
548.10	3.2881E-02
548.30	3.3278E-02
548.50	3.4008E-02
548.69	3.3841E-02
548.89	3.3646E-02
549.09	3.3724E-02
549.29	3.3484E-02
549.48	3.4636E-02
549.68	3.3342E-02
549.88	3.4145E-02
550.07	3.4342E-02
550.27	3.4188E-02
550.47	3.1809E-02
550.66	3.4910E-02
550.86	3.3546E-02
551.06	3.4848E-02
551.25	3.4032E-02
551.45	3.4914E-02
551.65	3.5001E-02
551.85	3.5448E-02
552.04	3.3946E-02
552.24	3.4751E-02
552.44	3.4370E-02
552.63	3.4349E-02
552.83	3.4865E-02
553.03	3.4105E-02
553.22	3.5362E-02
553.42	3.4541E-02
553.62	3.5545E-02
553.81	3.4593E-02
554.01	3.5171E-02
554.21	3.4446E-02
554.40	3.4994E-02
554.60	3.4773E-02
554.80	3.5219E-02
554.99	3.5066E-02
555.19	3.4951E-02
555.39	3.5099E-02
555.58	3.4513E-02
555.78	3.4619E-02
555.98	3.4324E-02
556.17	3.4338E-02
556.37	3.4511E-02
556.56	3.4457E-02
556.76	3.4414E-02
556.96	3.3854E-02
557.15	3.4170E-02
557.35	3.3860E-02
557.55	3.3800E-02
557.74	3.3664E-02
557.94	3.4092E-02
558.14	3.4285E-02
558.33	3.3384E-02
558.53	3.3311E-02
558.73	3.3747E-02
558.92	3.3076E-02
559.12	3.4188E-02
559.31	3.4229E-02
559.51	3.4532E-02
559.71	3.3867E-02
559.90	3.4280E-02
560.10	3.4272E-02
560.30	3.4090E-02
560.49	3.3730E-02
560.69	3.4217E-02
560.88	3.4572E-02
561.08	3.3430E-02
561.28	3.3544E-02
561.47	3.4068E-02
561.67	3.4087E-02
561.86	3.3505E-02
562.06	3.3777E-02
562.26	3.4137E-02
562.45	3.3703E-02
562.65	3.3949E-02
562.84	3.2935E-02
563.04	3.3225E-02
563.24	3.3065E-02
563.43	3.3734E-02
563.63	3.3672E-02
563.82	3.3125E-02
564.02	3.3474E-02
564.22	3.3586E-02
564.41	3.2661E-02
564.61	3.3030E-02
564.80	3.3045E-02
565.00	3.2530E-02
565.20	3.3221E-02
565.39	3.2143E-02
565.59	3.1683E-02
565.78	3.2284E-02
565.98	3.1563E-02
566.18	3.2629E-02
566.37	3.2075E-02
566.57	3.1679E-02
566.76	3.1292E-02
566.96	3.2138E-02
567.15	3.1389E-02
567.35	3.2389E-02
567.55	3.1632E-02
567.74	3.1672E-02
567.94	3.1126E-02
568.13	3.1548E-02
568.33	3.2002E-02
568.52	3.1773E-02
568.72	3.1188E-02
568.91	3.0804E-02
569.11	3.0867E-02
569.31	3.1565E-02
569.50	3.0510E-02
569.70	3.0992E-02
569.89	3.0665E-02
570.09	3.0317E-02
570.28	3.0016E-02
570.48	3.0289E-02
570.67	3.0891E-02
570.87	2.9808E-02
571.07	2.9683E-02
571.26	3.0265E-02
571.46	2.9953E-02
571.65	3.0242E-02
571.85	3.0425E-02
572.04	2.9903E-02
572.24	3.0680E-02
572.43	2.9828E-02
572.63	3.0460E-02
572.82	2.9800E-02
573.02	3.0438E-02
573.21	2.9790E-02
573.41	3.0125E-02
573.60	3.0587E-02
573.80	3.0280E-02
573.99	2.9825E-02
574.19	3.0526E-02
574.38	2.9883E-02
574.58	3.0030E-02
574.78	2.9230E-02
574.97	2.9951E-02
575.17	2.9686E-02
575.36	2.9257E-02
575.56	2.8840E-02
575.75	2.9805E-02
575.95	2.9051E-02
576.14	2.8619E-02
576.34	2.9391E-02
576.53	2.8560E-02
576.73	2.8659E-02
576.92	2.8000E-02
577.12	2.9209E-02
577.31	2.7485E-02
577.51	2.9169E-02
577.70	2.8511E-02
577.90	2.8429E-02
578.09	2.8849E-02
578.29	2.8206E-02
578.48	2.9007E-02
578.68	2.8434E-02
578.87	2.9536E-02
579.06	2.8261E-02
579.26	2.8754E-02
579.45	2.8250E-02
579.65	2.9479E-02
579.84	2.8618E-02
580.04	2.9092E-02
580.23	2.9398E-02
580.43	2.8043E-02
580.62	2.8790E-02
580.82	2.8854E-02
581.01	2.8488E-02
581.21	2.8364E-02
581.40	2.8090E-02
581.60	2.8878E-02
581.79	2.8972E-02
581.99	2.8067E-02
582.18	2.7959E-02
582.37	2.8372E-02
582.57	2.8366E-02
582.76	2.8697E-02
582.96	2.8715E-02
583.15	2.8474E-02
583.35	2.8342E-02
583.54	2.8409E-02
583.74	2.8201E-02
583.93	2.7613E-02
584.12	2.7184E-02
584.32	2.8413E-02
584.51	2.7849E-02
584.71	2.6976E-02
584.90	2.7179E-02
585.10	2.7214E-02
585.29	2.7375E-02
585.49	2.7389E-02
585.68	2.7658E-02
585.87	2.7277E-02
586.07	2.7012E-02
586.26	2.6816E-02
586.46	2.6755E-02
586.65	2.6399E-02
586.85	2.6708E-02
587.04	2.5419E-02
587.23	2.6635E-02
587.43	2.6251E-02
587.62	2.4732E-02
587.82	2.5937E-02
588.01	2.5158E-02
588.20	2.5338E-02
588.40	2.4604E-02
588.59	2.5246E-02
588.79	2.5407E-02
588.98	2.5725E-02
589.18	2.5152E-02
589.37	2.5628E-02
589.56	2.4750E-02
589.76	2.4406E-02
589.95	2.5824E-02
590.15	2.5311E-02
590.34	2.4641E-02
590.53	2.5785E-02
590.73	2.5084E-02
590.92	2.5124E-02
591.11	2.5757E-02
591.31	2.5708E-02
591.50	2.6083E-02
591.70	2.5743E-02
591.89	2.6568E-02
592.08	2.5416E-02
592.28	2.5141E-02
592.47	2.6407E-02
592.67	2.6231E-02
592.86	2.6201E-02
593.05	2.5258E-02
593.25	2.6237E-02
593.44	2.5739E-02
593.63	2.6528E-02
593.83	2.5602E-02
594.02	2.6627E-02
594.22	2.6503E-02
594.41	2.7036E-02
594.60	2.6191E-02
594.80	2.6314E-02
594.99	2.6411E-02
595.18	2.6379E-02
595.38	2.6128E-02
595.57	2.6490E-02
595.76	2.6696E-02
595.96	2.6415E-02
596.15	2.5539E-02
596.34	2.7450E-02
596.54	2.7170E-02
596.73	2.6584E-02
596.93	2.6988E-02
597.12	2.6433E-02
597.31	2.7018E-02
597.51	2.6471E-02
597.70	2.6688E-02
597.89	2.6445E-02
598.09	2.6165E-02
598.28	2.7769E-02
598.47	2.6441E-02
598.67	2.6671E-02
598.86	2.6008E-02
599.05	2.7255E-02
599.25	2.6640E-02
599.44	2.7054E-02
599.63	2.7521E-02
599.83	2.6586E-02
600.02	2.6712E-02
600.21	2.6809E-02
600.41	2.7083E-02
600.60	2.6118E-02
600.79	2.6802E-02
600.98	2.6899E-02
601.18	2.7748E-02
601.37	2.6419E-02
601.56	2.6697E-02
601.76	2.8365E-02
601.95	2.6737E-02
602.14	2.7098E-02
602.34	2.7160E-02
602.53	2.7883E-02
602.72	2.6924E-02
602.92	2.7690E-02
603.11	2.7185E-02
603.30	2.7734E-02
603.49	2.7071E-02
603.69	2.8315E-02
603.88	2.7517E-02
604.07	2.8049E-02
604.27	2.7410E-02
604.46	2.6621E-02
604.65	2.7362E-02
604.84	2.7193E-02
605.04	2.7550E-02
605.23	2.7219E-02
605.42	2.7254E-02
605.62	2.7569E-02
605.81	2.6851E-02
606.00	2.7040E-02
606.19	2.7565E-02
606.39	2.7493E-02
606.58	2.6774E-02
606.77	2.6850E-02
606.97	2.6182E-02
607.16	2.7122E-02
607.35	2.7438E-02
607.54	2.6795E-02
607.74	2.7513E-02
607.93	2.7605E-02
608.12	2.6558E-02
608.31	2.6940E-02
608.51	2.7151E-02
608.70	2.6582E-02
608.89	2.6464E-02
609.08	2.5934E-02
609.28	2.6733E-02
609.47	2.6678E-02
609.66	2.6764E-02
609.85	2.6843E-02
610.05	2.6965E-02
610.24	2.6029E-02
610.43	2.6421E-02
610.62	2.6058E-02
610.82	2.5758E-02
611.01	2.6321E-02
611.20	2.5820E-02
611.39	2.5907E-02
611.59	2.5789E-02
611.78	2.6267E-02
611.97	2.5993E-02
612.16	2.6740E-02
612.35	2.5577E-02
612.55	2.5627E-02
612.74	2.6188E-02
612.93	2.5910E-02
613.12	2.4886E-02
613.32	2.5506E-02
613.51	2.5750E-02
613.70	2.5659E-02
613.89	2.5633E-02
614.08	2.5687E-02
614.28	2.5458E-02
614.47	2.4959E-02
614.66	2.5171E-02
614.85	2.5725E-02
615.04	2.5554E-02
615.24	2.6424E-02
615.43	2.5420E-02
615.62	2.4957E-02
615.81	2.4983E-02
616.00	2.3833E-02
616.20	2.4857E-02
616.39	2.4940E-02
616.58	2.4951E-02
616.77	2.4920E-02
616.96	2.6189E-02
617.16	2.6059E-02
617.35	2.5719E-02
617.54	2.5124E-02
617.73	2.4809E-02
617.92	2.4935E-02
618.12	2.5962E-02
618.31	2.5531E-02
618.50	2.5719E-02
618.69	2.5265E-02
618.88	2.6641E-02
619.07	2.5893E-02
619.27	2.6184E-02
619.46	2.6347E-02
619.65	2.7168E-02
619.84	2.6027E-02
620.03	2.5876E-02
620.22	2.6963E-02
620.42	2.4955E-02
620.61	2.6989E-02
620.80	2.6659E-02
620.99	2.6393E-02
621.18	2.7380E-02
621.37	2.5994E-02
621.57	2.4825E-02
621.76	2.6341E-02
621.95	2.6075E-02
622.14	2.5273E-02
622.33	2.4798E-02
622.52	2.5473E-02
622.71	2.6193E-02
622.91	2.6495E-02
623.10	2.6105E-02
623.29	2.5775E-02
623.48	2.5308E-02
623.67	2.6107E-02
623.86	2.6036E-02
624.05	2.5902E-02
624.25	2.5157E-02
624.44	2.6172E-02
624.63	2.6886E-02
624.82	2.6138E-02
625.01	2.5591E-02
625.20	2.6505E-02
625.39	2.5016E-02
625.58	2.6260E-02
625.78	2.6603E-02
625.97	2.4886E-02
626.16	2.5601E-02
626.35	2.5448E-02
626.54	2.6407E-02
626.73	2.6330E-02
626.92	2.5688E-02
627.11	2.5659E-02
627.31	2.5580E-02
627.50	2.5326E-02
627.69	2.5876E-02
627.88	2.6200E-02
628.07	2.3723E-02
628.26	2.5052E-02
628.45	2.4681E-02
628.64	2.5027E-02
628.83	2.4913E-02
629.02	2.3417E-02
629.22	2.6273E-02
629.41	2.4635E-02
629.60	2.3507E-02
629.79	2.5672E-02
629.98	2.4540E-02
630.17	2.5279E-02
630.36	2.5127E-02
630.55	2.5298E-02
630.74	2.5640E-02
630.93	2.6267E-02
631.12	2.4649E-02
631.31	2.4738E-02
631.51	2.5949E-02
631.70	2.5780E-02
631.89	2.4811E-02
632.08	2.5100E-02
632.27	2.5566E-02
632.46	2.5244E-02
632.65	2.5286E-02
632.84	2.4280E-02
633.03	2.6381E-02
633.22	2.5361E-02
633.41	2.6424E-02
633.60	2.6356E-02
633.79	2.5540E-02
633.98	2.4399E-02
634.17	2.5577E-02
634.37	2.5387E-02
634.56	2.6175E-02
634.75	2.4474E-02
634.94	2.5964E-02
635.13	2.5096E-02
635.32	2.5971E-02
635.51	2.5892E-02
635.70	2.4624E-02
635.89	2.6799E-02
636.08	2.5229E-02
636.27	2.4403E-02
636.46	2.5782E-02
636.65	2.4935E-02
636.84	2.4129E-02
637.03	2.5463E-02
637.22	2.5244E-02
637.41	2.4627E-02
637.60	2.5138E-02
637.79	2.5088E-02
637.98	2.4700E-02
638.17	2.4742E-02
638.36	2.3855E-02
638.55	2.2946E-02
638.74	2.3175E-02
638.93	2.3570E-02
639.12	2.3284E-02
639.31	2.3533E-02
639.50	2.3053E-02
639.69	2.2711E-02
639.88	2.3949E-02
640.07	2.2925E-02
640.26	2.4088E-02
640.45	2.3455E-02
640.64	2.3815E-02
640.83	2.3641E-02
641.02	2.4450E-02
641.21	2.3394E-02
641.40	2.1842E-02
641.59	2.3516E-02
641.78	2.3976E-02
641.97	2.3531E-02
642.16	2.3967E-02
642.35	2.3597E-02
642.54	2.3594E-02
642.73	2.2977E-02
642.92	2.0815E-02
643.11	2.3517E-02
643.30	2.3739E-02
643.49	2.2470E-02
643.68	2.2861E-02
643.87	2.1611E-02
644.06	2.2654E-02
644.25	2.1666E-02
644.44	2.1912E-02
644.63	2.1673E-02
644.82	2.1741E-02
645.01	2.2388E-02
645.20	2.2184E-02
645.39	2.1530E-02
645.58	2.1261E-02
645.77	2.1176E-02
645.96	2.2258E-02
646.15	2.1369E-02
646.34	2.1708E-02
646.53	2.1378E-02
646.72	2.1508E-02
646.91	2.0316E-02
647.10	2.2474E-02
647.29	2.0821E-02
647.47	2.1590E-02
647.66	2.0686E-02
647.85	2.0123E-02
648.04	2.0160E-02
648.23	2.0269E-02
648.42	2.2449E-02
648.61	1.9365E-02
648.80	2.0563E-02
648.99	2.1164E-02
649.18	1.9470E-02
649.37	2.0775E-02
649.56	2.0061E-02
649.75	1.9701E-02
649.94	2.0900E-02
650.13	2.0407E-02
650.31	2.0568E-02
650.50	1.9879E-02
650.69	2.0685E-02
650.88	1.9967E-02
651.07	2.0110E-02
651.26	2.0551E-02
651.45	2.1742E-02
651.64	2.0731E-02
651.83	1.9645E-02
652.02	2.0487E-02
652.21	1.9830E-02
652.40	1.9861E-02
652.58	2.1983E-02
652.77	1.9588E-02
652.96	1.9227E-02
653.15	2.0591E-02
653.34	2.0379E-02
653.53	2.0407E-02
653.72	2.0233E-02
653.91	1.9039E-02
654.10	1.9635E-02
654.29	1.8691E-02
654.47	2.0717E-02
654.66	1.7920E-02
654.85	1.8455E-02
655.04	1.7655E-02
655.23	1.8835E-02
655.42	1.7248E-02
655.61	1.8492E-02
655.80	1.8135E-02
655.98	1.9009E-02
656.17	1.8735E-02
656.36	1.9181E-02
656.55	1.8231E-02
656.74	1.9917E-02
656.93	1.9605E-02
657.12	1.9711E-02
657.31	1.8416E-02
657.49	2.0822E-02
657.68	2.0081E-02
657.87	1.8005E-02
658.06	2.0846E-02
658.25	1.9193E-02
658.44	2.0278E-02
658.63	1.9431E-02
658.81	1.8995E-02
659.00	1.9915E-02
659.19	1.9245E-02
659.38	2.1142E-02
659.57	2.1050E-02
659.76	1.9659E-02
659.95	2.1423E-02
660.13	1.8763E-02
660.32	2.0389E-02
660.51	1.9875E-02
660.70	2.0830E-02
660.89	1.9818E-02
661.08	2.0195E-02
661.26	1.9300E-02
661.45	2.0259E-02
661.64	1.9391E-02
661.83	1.9269E-02
662.02	1.9594E-02
662.21	2.0410E-02
662.39	2.0830E-02
662.58	1.9798E-02
662.77	2.1591E-02
662.96	2.0593E-02
663.15	1.9323E-02
663.33	2.1154E-02
663.52	1.9729E-02
663.71	1.9753E-02
663.90	1.9742E-02
664.09	1.8425E-02
664.28	1.9344E-02
664.46	1.8484E-02
664.65	1.8750E-02
664.84	1.7882E-02
665.03	1.9109E-02
665.22	1.9689E-02
665.40	1.9577E-02
665.59	1.8810E-02
665.78	1.8753E-02
665.97	1.8697E-02
666.16	1.9469E-02
666.34	2.0245E-02
666.53	1.8460E-02
666.72	2.0065E-02
666.91	1.9113E-02
667.09	1.9290E-02
667.28	2.0086E-02
667.47	1.9952E-02
667.66	1.9308E-02
667.85	1.9202E-02
668.03	1.5572E-02
668.22	2.0036E-02
668.41	1.9235E-02
668.60	1.7001E-02
668.78	1.9910E-02
668.97	1.8862E-02
669.16	1.7827E-02
669.35	1.9644E-02
669.54	1.7570E-02
669.72	1.9509E-02
669.91	1.8435E-02
670.10	1.9062E-02
670.29	1.8937E-02
670.47	1.9787E-02
670.66	2.0317E-02
670.85	1.9188E-02
671.04	1.7814E-02
671.22	1.7834E-02
671.41	1.8929E-02
671.60	1.9093E-02
671.79	1.9215E-02
671.97	1.8513E-02
672.16	2.0450E-02
672.35	1.9690E-02
672.54	1.9617E-02
672.72	1.8580E-02
672.91	1.7632E-02
673.10	1.8528E-02
673.28	1.7946E-02
673.47	1.8288E-02
673.66	1.8364E-02
673.85	2.0212E-02
674.03	1.9130E-02
674.22	1.8959E-02
674.41	1.7934E-02
674.60	1.8012E-02
674.78	1.6510E-02
674.97	1.7457E-02
675.16	2.0726E-02
675.34	1.9465E-02
675.53	1.8444E-02
675.72	1.7697E-02
675.91	2.0442E-02
676.09	1.9037E-02
676.28	1.9947E-02
676.47	1.9417E-02
676.65	1.7700E-02
676.84	1.9068E-02
677.03	1.9861E-02
677.22	1.8537E-02
677.40	1.9551E-02
677.59	1.8988E-02
677.78	1.8453E-02
677.96	1.8949E-02
678.15	1.9772E-02
678.34	2.0965E-02
678.52	1.8420E-02
678.71	1.8897E-02
678.90	1.9032E-02
679.08	1.9468E-02
679.27	1.8031E-02
679.46	2.0425E-02
679.64	1.9223E-02
679.83	1.8597E-02
680.02	1.8850E-02
680.21	1.6630E-02
680.39	1.9986E-02
680.58	1.8991E-02
680.77	1.8703E-02
680.95	1.8981E-02
681.14	1.7064E-02
681.33	1.8924E-02
681.51	1.9799E-02
681.70	1.9220E-02
681.89	1.9863E-02
682.07	1.8833E-02
682.26	1.6817E-02
682.44	1.9371E-02
682.63	1.9161E-02
682.82	1.9845E-02
683.00	1.6561E-02
683.19	1.8786E-02
683.38	1.9424E-02
683.56	1.9959E-02
683.75	1.9347E-02
683.94	1.7641E-02
684.12	1.7638E-02
684.31	1.9533E-02
684.50	1.9968E-02
684.68	1.8280E-02
684.87	1.8336E-02
685.05	1.8941E-02
685.24	1.7177E-02
685.43	1.8575E-02
685.61	1.8430E-02
685.80	1.7269E-02
685.99	1.8764E-02
686.17	1.7059E-02
686.36	1.9231E-02
686.54	1.9169E-02
686.73	1.8625E-02
686.92	1.8824E-02
687.10	1.8161E-02
687.29	1.9606E-02
687.48	1.8027E-02
687.66	2.0637E-02
687.85	1.8703E-02
688.03	1.9563E-02
688.22	1.8146E-02
688.41	2.0235E-02
688.59	1.8236E-02
688.78	2.0522E-02
688.96	2.0992E-02
689.15	2.2098E-02
689.34	1.8119E-02
689.52	2.2780E-02
689.71	2.1124E-02
689.89	2.2213E-02
690.08	2.3762E-02
690.27	2.2359E-02
690.45	2.1862E-02
690.64	2.1764E-02
690.82	2.0966E-02
691.01	2.2747E-02
691.19	2.2285E-02
691.38	2.3193E-02
691.57	2.4167E-02
691.75	2.2523E-02
691.94	2.4574E-02
692.12	2.3259E-02
692.31	2.4840E-02
692.50	2.3840E-02
692.68	2.5065E-02
692.87	2.6348E-02
693.05	2.5667E-02
693.24	2.4205E-02
693.42	2.5218E-02
693.61	2.6431E-02
693.79	2.7551E-02
693.98	2.5993E-02
694.17	2.7453E-02
694.35	2.9173E-02
694.54	2.9498E-02
694.72	2.8942E-02
694.91	2.9222E-02
695.09	2.9440E-02
695.28	2.9794E-02
695.46	3.0490E-02
695.65	3.1100E-02
695.83	3.1617E-02
696.02	3.2927E-02
696.21	3.3578E-02
696.39	3.2311E-02
696.58	3.3630E-02
696.76	3.0718E-02
696.95	3.2803E-02
697.13	3.3378E-02
697.32	3.4350E-02
697.50	3.4540E-02
697.69	3.5319E-02
697.87	3.6375E-02
698.06	3.6570E-02
698.24	3.5181E-02
698.43	3.6128E-02
698.61	3.8585E-02
698.80	3.7509E-02
698.98	3.9227E-02
699.17	3.5971E-02
699.35	3.8982E-02
699.54	3.8520E-02
699.72	3.7047E-02
699.91	4.0668E-02
700.09	4.0984E-02
700.28	4.1785E-02
700.46	4.2177E-02
700.65	4.1854E-02
700.83	4.3163E-02
701.02	4.4436E-02
701.20	4.1249E-02
701.39	4.5867E-02
701.57	4.4767E-02
701.76	4.3607E-02
701.94	4.5411E-02
702.13	4.6417E-02
702.31	4.3832E-02
702.50	5.0468E-02
702.68	4.9546E-02
702.87	5.0881E-02
703.05	5.1497E-02
703.24	5.0843E-02
703.42	4.7564E-02
703.61	5.2823E-02
703.79	5.4036E-02
703.98	5.1626E-02
704.16	5.3262E-02
704.35	5.2991E-02
704.53	5.4542E-02
704.72	5.5245E-02
704.90	5.6334E-02
705.08	5.4925E-02
705.27	5.8438E-02
705.45	5.8681E-02
705.64	5.9970E-02
705.82	5.9884E-02
706.01	6.0383E-02
706.19	5.9785E-02
706.38	6.0982E-02
706.56	6.3546E-02
706.75	6.3471E-02
706.93	6.3402E-02
707.11	6.2045E-02
707.30	6.5480E-02
707.48	6.5489E-02
707.67	6.4278E-02
707.85	6.5579E-02
708.04	6.7207E-02
708.22	6.7384E-02
708.40	6.6596E-02
708.59	6.6316E-02
708.77	6.9784E-02
708.96	6.9296E-02
709.14	7.0609E-02
709.33	7.0301E-02
709.51	7.2052E-02
709.69	7.2493E-02
709.88	7.3539E-02
710.06	7.3695E-02
710.25	7.2861E-02
710.43	7.4774E-02
710.62	7.6524E-02
710.80	7.5648E-02
710.98	7.6782E-02
711.17	7.6537E-02
711.35	7.7970E-02
711.54	7.9132E-02
711.72	7.8044E-02
711.90	8.0182E-02
712.09	8.0733E-02
712.27	7.9185E-02
712.46	8.1385E-02
712.64	8.0270E-02
712.82	8.3456E-02
713.01	8.3930E-02
713.19	8.4027E-02
713.37	8.3004E-02
713.56	8.2910E-02
713.74	8.5014E-02
713.93	8.3804E-02
714.11	8.2942E-02
714.29	8.1429E-02
714.48	8.4293E-02
714.66	8.4130E-02
714.85	8.2600E-02
715.03	8.2913E-02
715.21	8.2367E-02
715.40	8.0620E-02
715.58	8.0624E-02
715.76	7.9239E-02
715.95	7.9850E-02
716.13	8.1637E-02
716.31	8.0208E-02
716.50	7.9226E-02
716.68	7.7980E-02
716.87	7.9341E-02
717.05	7.9161E-02
717.23	7.7150E-02
717.42	7.8459E-02
717.60	7.7553E-02
717.78	7.8347E-02
717.97	7.8535E-02
718.15	7.8135E-02
718.33	7.7844E-02
718.52	7.9964E-02
718.70	8.1434E-02
718.88	8.0306E-02
719.07	8.4614E-02
719.25	8.3112E-02
719.43	8.4954E-02
719.62	8.5161E-02
719.80	8.6174E-02
719.98	8.9404E-02
720.17	8.9099E-02
720.35	9.0018E-02
720.53	9.2504E-02
720.72	9.4098E-02
720.90	9.3492E-02
721.08	9.3433E-02
721.27	9.4993E-02
721.45	9.5758E-02
721.63	9.6167E-02
721.82	9.8042E-02
722.00	9.7379E-02
722.18	9.7728E-02
722.36	9.9769E-02
722.55	9.9435E-02
722.73	9.9981E-02
722.91	1.0027E-01
723.10	1.0178E-01
723.28	1.0075E-01
723.46	9.7889E-02
723.65	1.0077E-01
723.83	1.0110E-01
724.01	1.0113E-01
724.19	1.0298E-01
724.38	1.0345E-01
724.56	1.0466E-01
724.74	1.0598E-01
724.93	1.0303E-01
725.11	1.0408E-01
725.29	1.0665E-01
725.47	1.0699E-01
725.66	1.0743E-01
725.84	1.0715E-01
726.02	1.0855E-01
726.21	1.1125E-01
726.39	1.1009E-01
726.57	1.1114E-01
726.75	1.1093E-01
726.94	1.1397E-01
727.12	1.1297E-01
727.30	1.1362E-01
727.48	1.1308E-01
727.67	1.1575E-01
727.85	1.1476E-01
728.03	1.1644E-01
728.21	1.1862E-01
728.40	1.1723E-01
728.58	1.2059E-01
728.76	1.2011E-01
728.94	1.2211E-01
729.13	1.2412E-01
729.31	1.2294E-01
729.49	1.2571E-01
729.67	1.2706E-01
729.86	1.2874E-01
730.04	1.2787E-01
730.22	1.3181E-01
730.40	1.3287E-01
730.59	1.3435E-01
730.77	1.3594E-01
730.95	1.3910E-01
731.13	1.3920E-01
731.31	1.4116E-01
731.50	1.4035E-01
731.68	1.4557E-01
731.86	1.4539E-01
732.04	1.4773E-01
732.23	1.5050E-01
732.41	1.5065E-01
732.59	1.5263E-01
732.77	1.5409E-01
732.95	1.5539E-01
733.14	1.5549E-01
733.32	1.5879E-01
733.50	1.5854E-01
733.68	1.5929E-01
733.86	1.6002E-01
734.05	1.6190E-01
734.23	1.6307E-01
734.41	1.6109E-01
734.59	1.6362E-01
734.77	1.6483E-01
734.96	1.6310E-01
735.14	1.6748E-01
735.32	1.6769E-01
735.50	1.6838E-01
735.68	1.7127E-01
735.87	1.7038E-01
736.05	1.7372E-01
736.23	1.7005E-01
736.41	1.7429E-01
736.59	1.7447E-01
736.77	1.7439E-01
736.96	1.7484E-01
737.14	1.7440E-01
737.32	1.7826E-01
737.50	1.7991E-01
737.68	1.8003E-01
737.87	1.8165E-01
738.05	1.8378E-01
738.23	1.8066E-01
738.41	1.8278E-01
738.59	1.8416E-01
738.77	1.8555E-01
738.95	1.8803E-01
739.14	1.8571E-01
739.32	1.8671E-01
739.50	1.9050E-01
739.68	1.8815E-01
739.86	1.8998E-01
740.04	1.9007E-01
740.23	1.8898E-01
740.41	1.9271E-01
740.59	1.9398E-01
740.77	1.9574E-01
740.95	1.9476E-01
741.13	1.9467E-01
741.31	1.9452E-01
741.50	1.9563E-01
741.68	1.9569E-01
741.86	1.9615E-01
742.04	1.9899E-01
742.22	2.0044E-01
742.40	2.0024E-01
742.58	2.0172E-01
742.76	2.0247E-01
742.95	1.9995E-01
743.13	2.0479E-01
743.31	2.0416E-01
743.49	2.0397E-01
743.67	2.0668E-01
743.85	2.0665E-01
744.03	2.0563E-01
744.21	2.0699E-01
744.39	2.0561E-01
744.58	2.0856E-01
744.76	2.0870E-01
744.94	2.1058E-01
745.12	2.0938E-01
745.30	2.0839E-01
745.48	2.1086E-01
745.66	2.1187E-01
745.84	2.0920E-01
746.02	2.0950E-01
746.20	2.1086E-01
746.38	2.1174E-01
746.57	2.1384E-01
746.75	2.0889E-01
746.93	2.1214E-01
747.11	2.0979E-01
747.29	2.1162E-01
747.47	2.1315E-01
747.65	2.1306E-01
747.83	2.1008E-01
748.01	2.1251E-01
748.19	2.1307E-01
748.37	2.1311E-01
748.55	2.1317E-01
748.73	2.1236E-01
748.92	2.1423E-01
749.10	2.1295E-01
749.28	2.1508E-01
749.46	2.1342E-01
749.64	2.1290E-01
749.82	2.1430E-01
750.00	2.1637E-01
750.18	2.1605E-01
750.36	2.1408E-01
750.54	2.1704E-01
750.72	2.1853E-01
750.90	2.1894E-01
751.08	2.1768E-01
751.26	2.1976E-01
751.44	2.1983E-01
751.62	2.2186E-01
751.80	2.2071E-01
751.98	2.2200E-01
752.16	2.2285E-01
752.34	2.2375E-01
752.52	2.2453E-01
752.71	2.2153E-01
752.89	2.2121E-01
753.07	2.2568E-01
753.25	2.2254E-01
753.43	2.2720E-01
753.61	2.2471E-01
753.79	2.2847E-01
753.97	2.2792E-01
754.15	2.2889E-01
754.33	2.2989E-01
754.51	2.3070E-01
754.69	2.3178E-01
754.87	2.3117E-01
755.05	2.3169E-01
755.23	2.3345E-01
755.41	2.3452E-01
755.59	2.2489E-01
755.77	2.3012E-01
755.95	2.2916E-01
756.13	2.2499E-01
756.31	2.2754E-01
756.49	2.2567E-01
756.67	2.2189E-01
756.85	2.1866E-01
757.03	2.1446E-01
757.21	2.1130E-01
757.39	2.0838E-01
757.57	2.0508E-01
757.75	1.9814E-01
757.93	1.9143E-01
758.11	1.8878E-01
758.29	1.8411E-01
758.47	1.7780E-01
758.65	1.7414E-01
758.83	1.7298E-01
759.01	1.6681E-01
759.18	1.6136E-01
759.36	1.5339E-01
759.54	1.5323E-01
759.72	1.4708E-01
759.90	1.4609E-01
760.08	1.4341E-01
760.26	1.4168E-01
760.44	1.3709E-01
760.62	1.3360E-01
760.80	1.3292E-01
760.98	1.3671E-01
761.16	1.3624E-01
761.34	1.3408E-01
761.52	1.3755E-01
761.70	1.3382E-01
761.88	1.3518E-01
762.06	1.3648E-01
762.24	1.3689E-01
762.42	1.3884E-01
762.60	1.4048E-01
762.78	1.4329E-01
762.95	1.4442E-01
763.13	1.4836E-01
763.31	1.5139E-01
763.49	1.5286E-01
763.67	1.5674E-01
763.85	1.5707E-01
764.03	1.6463E-01
764.21	1.6545E-01
764.39	1.7142E-01
764.57	1.7750E-01
764.75	1.7971E-01
764.93	1.8755E-01
765.11	1.8748E-01
765.28	1.9406E-01
765.46	1.9694E-01
765.64	1.9971E-01
765.82	2.0483E-01
766.00	2.0952E-01
766.18	2.1326E-01
766.36	2.1611E-01
766.54	2.1875E-01
766.72	2.2211E-01
766.90	2.2870E-01
767.07	2.2644E-01
767.25	2.3105E-01
767.43	2.3417E-01
767.61	2.3847E-01
767.79	2.4077E-01
767.97	2.4173E-01
768.15	2.4220E-01
768.33	2.4239E-01
768.51	2.4677E-01
768.68	2.4815E-01
768.86	2.4770E-01
769.04	2.4967E-01
769.22	2.5530E-01
769.40	2.5519E-01
769.58	2.5378E-01
769.76	2.5866E-01
769.94	2.5826E-01
770.11	2.5589E-01
770.29	2.5776E-01
770.47	2.5793E-01
770.65	2.5870E-01
770.83	2.5839E-01
771.01	2.6043E-01
771.19	2.6030E-01
771.36	2.5775E-01
771.54	2.6083E-01
771.72	2.5931E-01
771.90	2.5725E-01
772.08	2.5997E-01
772.26	2.6156E-01
772.44	2.5660E-01
772.61	2.5947E-01
772.79	2.5626E-01
772.97	2.5974E-01
773.15	2.6177E-01
773.33	2.5719E-01
773.51	2.5994E-01
773.68	2.5661E-01
773.86	2.5530E-01
774.04	2.5676E-01
774.22	2.5427E-01
774.40	2.5547E-01
774.58	2.5663E-01
774.75	2.5591E-01
774.93	2.5228E-01
775.11	2.5667E-01
775.29	2.5320E-01
775.47	2.5054E-01
775.64	2.5398E-01
775.82	2.5224E-01
776.00	2.5313E-01
776.18	2.5082E-01
776.36	2.5026E-01
776.53	2.5452E-01
776.71	2.4982E-01
776.89	2.4892E-01
777.07	2.5031E-01
777.25	2.4943E-01
777.42	2.4947E-01
777.60	2.4699E-01
777.78	2.4903E-01
777.96	2.4721E-01
778.14	2.4916E-01
778.31	2.4683E-01
778.49	2.4258E-01
778.67	2.4346E-01
778.85	2.4467E-01
779.03	2.4625E-01
779.20	2.4573E-01
779.38	2.4460E-01
779.56	2.4133E-01
779.74	2.4481E-01
779.91	2.4181E-01
780.09	2.4094E-01
780.27	2.3826E-01
780.45	2.3953E-01
780.62	2.4072E-01
780.80	2.4147E-01
780.98	2.3708E-01
781.16	2.3471E-01
781.34	2.3910E-01
781.51	2.3963E-01
781.69	2.4001E-01
781.87	2.3900E-01
782.05	2.3770E-01
782.22	2.3807E-01
782.40	2.3650E-01
782.58	2.3697E-01
782.76	2.3406E-01
782.93	2.3654E-01
783.11	2.3807E-01
783.29	2.3384E-01
783.47	2.3365E-01
783.64	2.3452E-01
783.82	2.3240E-01
784.00	2.2883E-01
784.17	2.3102E-01
784.35	2.3127E-01
784.53	2.2960E-01
784.71	2.3142E-01
784.88	2.2919E-01
785.06	2.3192E-01
785.24	2.2802E-01
785.42	2.2956E-01
785.59	2.2745E-01
785.77	2.2262E-01
785.95	2.2412E-01
786.12	2.2093E-01
786.30	2.2318E-01
786.48	2.2199E-01
786.65	2.2037E-01
786.83	2.2075E-01
787.01	2.2073E-01
787.19	2.1899E-01
787.36	2.1939E-01
787.54	2.1740E-01
787.72	2.1789E-01
787.89	2.1698E-01
788.07	2.1594E-01
788.25	2.1455E-01
788.42	2.1277E-01
788.60	2.1508E-01
788.78	2.1218E-01
788.96	2.1238E-01
789.13	2.0972E-01
789.31	2.1021E-01
789.49	2.1001E-01
789.66	2.1170E-01
789.84	2.0832E-01
790.02	2.0442E-01
790.19	2.0705E-01
790.37	2.0840E-01
790.55	2.0654E-01
790.72	2.0645E-01
790.90	2.0919E-01
791.08	2.0450E-01
791.25	2.0492E-01
791.43	2.0516E-01
791.61	2.0343E-01
791.78	2.0288E-01
791.96	1.9949E-01
792.14	2.0244E-01
792.31	2.0376E-01
792.49	1.9834E-01
792.67	2.0406E-01
792.84	1.9961E-01
793.02	1.9955E-01
793.19	1.9818E-01
793.37	2.0150E-01
793.55	2.0131E-01
793.72	2.0027E-01
793.90	1.9632E-01
794.08	1.9832E-01
794.25	1.9890E-01
794.43	1.9650E-01
794.61	1.9812E-01
794.78	1.9796E-01
794.96	1.9473E-01
795.13	1.9760E-01
795.31	1.9793E-01
795.49	1.9394E-01
795.66	1.9647E-01
795.84	1.9490E-01
796.01	1.9563E-01
796.19	1.9380E-01
796.37	1.9632E-01
796.54	1.9468E-01
796.72	1.9584E-01
796.90	1.9379E-01
797.07	1.9092E-01
797.25	1.9326E-01
797.42	1.9514E-01
797.60	1.9382E-01
797.78	1.9188E-01
797.95	1.8939E-01
798.13	1.8787E-01
798.30	1.9113E-01
798.48	1.8987E-01
798.66	1.9174E-01
798.83	1.8645E-01
799.01	1.8885E-01
799.18	1.8615E-01
799.36	1.8897E-01
799.53	1.8238E-01
799.71	1.8753E-01
799.89	1.8422E-01
800.06	1.8423E-01
800.24	1.8423E-01
800.41	1.8014E-01
800.59	1.8542E-01
800.76	1.8076E-01
800.94	1.8072E-01
801.12	1.8335E-01
801.29	1.8279E-01
801.47	1.8391E-01
801.64	1.7955E-01
801.82	1.8254E-01
801.99	1.8199E-01
802.17	1.8179E-01
802.34	1.8088E-01
802.52	1.8054E-01
802.70	1.8195E-01
802.87	1.7881E-01
803.05	1.7766E-01
803.22	1.8331E-01
803.40	1.7969E-01
803.57	1.7985E-01
803.75	1.8318E-01
803.92	1.8061E-01
804.10	1.7693E-01
804.27	1.7742E-01
804.45	1.7925E-01
804.63	1.7812E-01
804.80	1.7642E-01
804.98	1.7879E-01
805.15	1.7441E-01
805.33	1.8068E-01
805.50	1.8111E-01
805.68	1.7959E-01
805.85	1.8085E-01
806.03	1.7793E-01
806.20	1.7841E-01
806.38	1.7152E-01
806.55	1.7287E-01
806.73	1.7891E-01
806.90	1.7483E-01
807.08	1.7352E-01
807.25	1.6989E-01
807.43	1.7348E-01
807.60	1.7461E-01
807.78	1.6992E-01
807.95	1.6626E-01
808.13	1.6802E-01
808.30	1.6665E-01
808.48	1.7068E-01
808.65	1.6831E-01
808.83	1.7171E-01
809.00	1.6744E-01
809.18	1.7099E-01
809.35	1.6461E-01
809.53	1.6860E-01
809.70	1.6586E-01
809.88	1.6572E-01
810.05	1.6420E-01
810.23	1.6549E-01
810.40	1.6310E-01
810.57	1.6218E-01
810.75	1.5856E-01
810.92	1.5756E-01
811.10	1.5746E-01
811.27	1.5397E-01
811.45	1.5488E-01
811.62	1.5260E-01
811.80	1.4997E-01
811.97	1.5204E-01
812.15	1.5135E-01
812.32	1.5087E-01
812.50	1.4422E-01
812.67	1.5262E-01
812.84	1.4333E-01
813.02	1.4544E-01
813.19	1.4340E-01
813.37	1.4285E-01
813.54	1.3857E-01
813.72	1.3924E-01
813.89	1.3517E-01
814.07	1.3709E-01
814.24	1.3655E-01
814.41	1.3609E-01
814.59	1.3035E-01
814.76	1.2849E-01
814.94	1.3044E-01
815.11	1.3130E-01
815.29	1.2246E-01
815.46	1.2343E-01
815.63	1.2472E-01
815.81	1.2425E-01
815.98	1.1732E-01
816.16	1.1759E-01
816.33	1.2263E-01
816.50	1.2456E-01
816.68	1.2164E-01
816.85	1.1947E-01
817.03	1.2192E-01
817.20	1.2035E-01
817.37	1.2254E-01
817.55	1.1994E-01
817.72	1.2142E-01
817.90	1.1743E-01
818.07	1.2126E-01
818.24	1.1728E-01
818.42	1.1935E-01
818.59	1.1950E-01
818.77	1.1958E-01
818.94	1.2348E-01
819.11	1.1830E-01
819.29	1.2401E-01
819.46	1.2332E-01
819.64	1.1805E-01
819.81	1.2620E-01
819.98	1.2445E-01
820.16	1.1999E-01
820.33	1.2366E-01
820.50	1.2301E-01
820.68	1.1962E-01
820.85	1.2234E-01
821.02	1.2102E-01
821.20	1.1760E-01
821.37	1.2126E-01
821.55	1.1579E-01
821.72	1.1936E-01
821.89	1.1958E-01
822.07	1.2315E-01
822.24	1.2253E-01
822.41	1.1606E-01
822.59	1.2545E-01
822.76	1.2562E-01
822.93	1.1998E-01
823.11	1.2169E-01
823.28	1.2357E-01
823.45	1.2113E-01
823.63	1.2208E-01
823.80	1.2546E-01
823.97	1.1764E-01
824.15	1.2685E-01
824.32	1.2322E-01
824.49	1.3043E-01
824.67	1.2473E-01
824.84	1.2750E-01
825.01	1.2714E-01
825.19	1.2739E-01
825.36	1.2727E-01
825.53	1.3048E-01
825.71	1.2882E-01
825.88	1.2966E-01
826.05	1.2424E-01
826.23	1.2810E-01
826.40	1.2522E-01
826.57	1.2589E-01
826.75	1.2437E-01
826.92	1.2166E-01
827.09	1.2178E-01
827.26	1.3018E-01
827.44	1.2600E-01
827.61	1.2933E-01
827.78	1.2622E-01
827.96	1.1988E-01
828.13	1.2854E-01
828.30	1.2560E-01
828.48	1.2385E-01
828.65	1.2279E-01
828.82	1.2334E-01
828.99	1.2345E-01
829.17	1.2421E-01
829.34	1.1648E-01
829.51	1.2229E-01
829.68	1.2662E-01
829.86	1.2512E-01
830.03	1.2213E-01
830.20	1.2393E-01
830.38	1.2229E-01
830.55	1.1844E-01
830.72	1.2291E-01
830.89	1.1750E-01
831.07	1.1737E-01
831.24	1.1747E-01
831.41	1.1900E-01
831.58	1.2252E-01
831.76	1.2602E-01
831.93	1.2265E-01
832.10	1.2240E-01
832.27	1.1656E-01
832.45	1.1642E-01
832.62	1.2204E-01
832.79	1.1921E-01
832.96	1.2348E-01
833.14	1.1727E-01
833.31	1.2602E-01
833.48	1.2283E-01
833.65	1.1999E-01
833.83	1.2675E-01
834.00	1.2773E-01
834.17	1.2346E-01
834.34	1.2622E-01
834.51	1.2352E-01
834.69	1.2150E-01
834.86	1.2749E-01
835.03	1.2393E-01
835.20	1.2795E-01
835.38	1.2471E-01
835.55	1.2620E-01
835.72	1.2426E-01
835.89	1.3332E-01
836.06	1.2490E-01
836.24	1.2444E-01
836.41	1.2170E-01
836.58	1.2895E-01
836.75	1.2801E-01
836.92	1.2630E-01
837.10	1.2221E-01
837.27	1.2475E-01
837.44	1.2209E-01
837.61	1.2965E-01
837.78	1.2353E-01
837.96	1.2701E-01
838.13	1.2487E-01
838.30	1.2923E-01
838.47	1.2727E-01
838.64	1.2557E-01
838.82	1.2487E-01
838.99	1.3166E-01
839.16	1.2459E-01
839.33	1.2568E-01
839.50	1.3118E-01
839.67	1.2780E-01
839.85	1.2103E-01
840.02	1.2719E-01
840.19	1.2434E-01
840.36	1.3044E-01
840.53	1.2329E-01
840.70	1.2274E-01
840.88	1.3001E-01
841.05	1.3163E-01
841.22	1.2760E-01
841.39	1.2718E-01
841.56	1.2825E-01
841.73	1.2664E-01
841.91	1.2932E-01
842.08	1.2892E-01
842.25	1.2797E-01
842.42	1.2965E-01
842.59	1.2753E-01
842.76	1.3370E-01
842.93	1.2727E-01
843.11	1.2876E-01
843.28	1.2652E-01
843.45	1.2674E-01
843.62	1.2178E-01
843.79	1.2295E-01
843.96	1.3014E-01
844.13	1.2648E-01
844.30	1.2582E-01
844.48	1.2930E-01
844.65	1.2120E-01
844.82	1.1849E-01
844.99	1.2320E-01
845.16	1.2238E-01
845.33	1.2370E-01
845.50	1.2354E-01
845.67	1.1882E-01
845.84	1.2316E-01
846.02	1.2016E-01
846.19	1.2293E-01
846.36	1.2272E-01
846.53	1.2853E-01
846.70	1.2382E-01
846.87	1.1720E-01
847.04	1.2461E-01
847.21	1.2446E-01
847.38	1.2443E-01
847.55	1.2403E-01
847.73	1.1904E-01
847.90	1.2112E-01
848.07	1.1690E-01
848.24	1.1812E-01
848.41	1.1581E-01
848.58	1.2861E-01
848.75	1.1837E-01
848.92	1.2518E-01
849.09	1.1888E-01
849.26	1.1643E-01
849.43	1.1395E-01
849.60	1.1696E-01
849.77	1.2040E-01
849.94	1.0474E-01
850.12	1.2078E-01
850.29	1.1746E-01
850.46	1.1476E-01
850.63	1.1299E-01
850.80	1.1638E-01
850.97	1.1587E-01
851.14	1.1022E-01
851.31	1.0569E-01
851.48	1.1100E-01
851.65	1.1278E-01
851.82	1.1750E-01
851.99	1.1564E-01
852.16	1.0473E-01
852.33	1.1239E-01
852.50	1.0901E-01
852.67	1.1009E-01
852.84	1.1170E-01
853.01	1.0849E-01
853.18	1.1167E-01
853.35	1.0529E-01
853.52	1.1530E-01
853.69	1.0795E-01
853.86	1.0292E-01
854.03	1.0220E-01
854.21	1.0941E-01
854.38	1.0672E-01
854.55	1.0967E-01
854.72	1.1022E-01
854.89	1.0251E-01
855.06	9.7728E-02
855.23	1.0597E-01
855.40	1.1175E-01
855.57	1.0225E-01
855.74	1.0527E-01
855.91	1.0752E-01
856.08	1.0304E-01
856.25	1.0832E-01
856.42	1.0669E-01
856.59	1.0655E-01
856.76	1.0880E-01
856.93	1.0843E-01
857.10	1.0786E-01
857.27	1.1509E-01
857.44	1.1058E-01
857.61	1.1047E-01
857.77	1.0528E-01
857.94	1.0587E-01
858.11	1.0516E-01
858.28	1.1461E-01
858.45	1.0502E-01
858.62	1.0971E-01
858.79	1.0675E-01
858.96	1.0698E-01
859.13	1.0711E-01
859.30	1.1119E-01
859.47	1.0548E-01
859.64	9.9974E-02
859.81	1.1088E-01
859.98	1.1128E-01
860.15	1.0726E-01
860.32	1.0435E-01
860.49	1.1728E-01
860.66	1.0906E-01
860.83	1.1034E-01
861.00	1.0834E-01
861.17	1.0945E-01
861.34	1.1006E-01
861.51	9.9163E-02
861.68	1.1057E-01
861.84	1.0810E-01
862.01	1.0305E-01
862.18	1.0522E-01
862.35	1.0843E-01
862.52	1.0865E-01
862.69	1.0504E-01
862.86	1.0710E-01
863.03	1.0882E-01
863.20	1.0576E-01
863.37	1.0700E-01
863.54	1.0069E-01
863.71	9.9980E-02
863.88	1.0313E-01
864.05	1.0173E-01
864.21	1.0536E-01
864.38	9.7199E-02
864.55	9.5187E-02
864.72	1.0616E-01
864.89	9.9834E-02
865.06	1.0460E-01
865.23	9.7669E-02
865.40	9.3435E-02
865.57	1.0374E-01
865.74	9.9012E-02
865.90	9.9435E-02
866.07	9.8260E-02
866.24	9.0843E-02
866.41	8.9271E-02
866.58	9.1620E-02
866.75	9.2701E-02
866.92	9.3114E-02
867.09	9.3371E-02
867.26	9.4381E-02
867.42	8.8496E-02
867.59	8.5162E-02
867.76	9.5207E-02
867.93	9.0492E-02
868.10	9.2497E-02
868.27	8.2555E-02
868.44	9.2239E-02
868.60	9.4323E-02
868.77	9.3538E-02
868.94	9.0487E-02
869.11	8.9562E-02
869.28	9.5335E-02
869.45	8.4395E-02
869.62	9.3954E-02
869.78	9.0837E-02
869.95	8.5908E-02
870.12	8.9305E-02
870.29	9.2855E-02
870.46	9.3576E-02
870.63	8.7921E-02
870.80	8.2861E-02
870.96	8.7438E-02
871.13	8.6251E-02
871.30	9.1922E-02
871.47	9.2636E-02
871.64	9.2442E-02
871.81	7.8940E-02
871.97	9.6093E-02
872.14	8.3291E-02
872.31	8.0858E-02
872.48	8.5734E-02
872.65	9.1888E-02
872.81	8.6425E-02
872.98	9.3834E-02
873.15	9.0937E-02
873.32	9.1131E-02
873.49	8.6202E-02
873.66	9.0516E-02
873.82	8.7178E-02
873.99	8.4063E-02
874.16	8.9352E-02
874.33	8.5588E-02
874.50	9.0795E-02
874.66	8.6321E-02
874.83	8.7787E-02
875.00	8.6473E-02
875.17	7.7225E-02
875.34	8.9989E-02
875.50	8.3588E-02
875.67	8.2047E-02
875.84	8.3851E-02
876.01	8.1624E-02
876.17	7.9157E-02
876.34	7.8907E-02
876.51	9.0017E-02
876.68	8.6662E-02
876.85	8.4539E-02
877.01	8.7661E-02
877.18	8.0480E-02
877.35	8.2504E-02
877.52	8.1841E-02
877.68	8.4832E-02
877.85	7.9654E-02
878.02	8.1734E-02
878.19	7.9328E-02
878.35	8.1140E-02
878.52	7.9848E-02
878.69	8.1475E-02
878.86	7.4723E-02
879.02	7.8578E-02
879.19	7.2886E-02
879.36	7.6291E-02
879.53	6.8590E-02
879.69	7.5442E-02
879.86	8.2553E-02
880.03	8.1319E-02
880.20	7.4436E-02
880.36	8.2221E-02
880.53	7.2810E-02
880.70	8.2506E-02
880.87	7.5887E-02
881.03	7.6269E-02
881.20	6.8393E-02
881.37	7.5198E-02
881.54	7.7440E-02
881.70	8.1509E-02
881.87	7.3536E-02
882.04	7.4268E-02
882.20	7.4682E-02
882.37	6.8668E-02
882.54	7.7213E-02
882.71	7.6388E-02
882.87	8.1087E-02
883.04	7.3627E-02
883.21	7.3325E-02
883.37	7.1041E-02
883.54	7.3491E-02
883.71	7.1755E-02
883.87	6.8261E-02
884.04	7.8416E-02
884.21	7.1992E-02
884.38	6.8778E-02
884.54	7.9514E-02
884.71	8.0033E-02
884.88	7.1650E-02
885.04	7.4310E-02
885.21	7.0224E-02
885.38	7.0101E-02
885.54	8.1671E-02
885.71	7.0533E-02
885.88	7.4005E-02
886.04	7.2174E-02
886.21	7.2093E-02
886.38	6.8979E-02
886.54	7.0127E-02
886.71	6.5859E-02
886.88	7.5815E-02
887.04	6.2925E-02
887.21	6.7443E-02
887.38	7.2949E-02
887.54	6.6660E-02
887.71	6.6098E-02
887.88	5.8789E-02
888.04	7.4296E-02
888.21	7.2700E-02
888.38	6.6998E-02
888.54	6.6634E-02
888.71	7.0568E-02
888.87	5.5934E-02
889.04	5.5934E-02
>>>>>End Processed Spectral Data<<<<<
