SpectraSuite Data File
++++++++++++++++++++++++++++++++++++
Date: Wed Jul 25 11:20:28 HST 2007
User: guest
Dark Spectrum Present: Yes
Reference Spectrum Present: No
Number of Sampled Component Spectra: 1
Spectrometers: USB4E01242
Integration Time (usec): 100000 (USB4E01242)
Spectra Averaged: 1 (USB4E01242)
Boxcar Smoothing: 10 (USB4E01242)
Correct for Electrical Dark: No (USB4E01242)
Strobe/Lamp Enabled: No (USB4E01242)
Correct for Detector Non-linearity: No (USB4E01242)
Correct for Stray Light: No (USB4E01242)
Number of Pixels in Processed Spectrum: 3648
>>>>>Begin Processed Spectral Data<<<<<
177.33	0.0000E00
177.55	0.0000E00
177.77	0.0000E00
177.99	0.0000E00
178.21	0.0000E00
178.43	0.0000E00
178.64	0.0000E00
178.86	0.0000E00
179.08	0.0000E00
179.30	0.0000E00
179.52	0.0000E00
179.74	0.0000E00
179.96	0.0000E00
180.18	0.0000E00
180.39	0.0000E00
180.61	0.0000E00
180.83	0.0000E00
181.05	0.0000E00
181.27	0.0000E00
181.49	0.0000E00
181.71	0.0000E00
181.92	0.0000E00
182.14	0.0000E00
182.36	0.0000E00
182.58	0.0000E00
182.80	0.0000E00
183.02	0.0000E00
183.23	0.0000E00
183.45	0.0000E00
183.67	0.0000E00
183.89	0.0000E00
184.11	0.0000E00
184.33	0.0000E00
184.55	0.0000E00
184.76	0.0000E00
184.98	0.0000E00
185.20	0.0000E00
185.42	0.0000E00
185.64	0.0000E00
185.86	0.0000E00
186.07	0.0000E00
186.29	0.0000E00
186.51	0.0000E00
186.73	0.0000E00
186.95	0.0000E00
187.17	0.0000E00
187.38	0.0000E00
187.60	0.0000E00
187.82	0.0000E00
188.04	0.0000E00
188.26	0.0000E00
188.47	0.0000E00
188.69	0.0000E00
188.91	0.0000E00
189.13	0.0000E00
189.35	0.0000E00
189.57	0.0000E00
189.78	0.0000E00
190.00	0.0000E00
190.22	0.0000E00
190.44	0.0000E00
190.66	0.0000E00
190.87	0.0000E00
191.09	0.0000E00
191.31	0.0000E00
191.53	-0.0000E00
191.75	0.0000E00
191.97	0.0000E00
192.18	0.0000E00
192.40	0.0000E00
192.62	0.0000E00
192.84	0.0000E00
193.06	0.0000E00
193.27	0.0000E00
193.49	0.0000E00
193.71	0.0000E00
193.93	0.0000E00
194.15	0.0000E00
194.36	0.0000E00
194.58	0.0000E00
194.80	0.0000E00
195.02	0.0000E00
195.23	0.0000E00
195.45	0.0000E00
195.67	0.0000E00
195.89	0.0000E00
196.11	0.0000E00
196.32	0.0000E00
196.54	0.0000E00
196.76	0.0000E00
196.98	0.0000E00
197.20	0.0000E00
197.41	0.0000E00
197.63	0.0000E00
197.85	0.0000E00
198.07	0.0000E00
198.28	0.0000E00
198.50	0.0000E00
198.72	0.0000E00
198.94	0.0000E00
199.16	0.0000E00
199.37	0.0000E00
199.59	0.0000E00
199.81	0.0000E00
200.03	0.0000E00
200.24	0.0000E00
200.46	0.0000E00
200.68	0.0000E00
200.90	0.0000E00
201.11	0.0000E00
201.33	0.0000E00
201.55	0.0000E00
201.77	0.0000E00
201.98	0.0000E00
202.20	0.0000E00
202.42	0.0000E00
202.64	0.0000E00
202.86	0.0000E00
203.07	0.0000E00
203.29	0.0000E00
203.51	0.0000E00
203.73	0.0000E00
203.94	0.0000E00
204.16	0.0000E00
204.38	0.0000E00
204.60	0.0000E00
204.81	0.0000E00
205.03	0.0000E00
205.25	0.0000E00
205.46	0.0000E00
205.68	0.0000E00
205.90	0.0000E00
206.12	0.0000E00
206.33	0.0000E00
206.55	0.0000E00
206.77	0.0000E00
206.99	0.0000E00
207.20	0.0000E00
207.42	0.0000E00
207.64	0.0000E00
207.86	0.0000E00
208.07	0.0000E00
208.29	0.0000E00
208.51	0.0000E00
208.72	0.0000E00
208.94	0.0000E00
209.16	0.0000E00
209.38	0.0000E00
209.59	0.0000E00
209.81	0.0000E00
210.03	0.0000E00
210.25	0.0000E00
210.46	0.0000E00
210.68	0.0000E00
210.90	0.0000E00
211.11	0.0000E00
211.33	0.0000E00
211.55	0.0000E00
211.77	0.0000E00
211.98	0.0000E00
212.20	0.0000E00
212.42	0.0000E00
212.63	0.0000E00
212.85	0.0000E00
213.07	0.0000E00
213.29	0.0000E00
213.50	0.0000E00
213.72	0.0000E00
213.94	0.0000E00
214.15	0.0000E00
214.37	0.0000E00
214.59	0.0000E00
214.80	0.0000E00
215.02	0.0000E00
215.24	0.0000E00
215.45	0.0000E00
215.67	0.0000E00
215.89	0.0000E00
216.11	0.0000E00
216.32	0.0000E00
216.54	0.0000E00
216.76	0.0000E00
216.97	0.0000E00
217.19	0.0000E00
217.41	0.0000E00
217.62	0.0000E00
217.84	0.0000E00
218.06	0.0000E00
218.27	0.0000E00
218.49	0.0000E00
218.71	0.0000E00
218.92	0.0000E00
219.14	0.0000E00
219.36	0.0000E00
219.57	0.0000E00
219.79	0.0000E00
220.01	0.0000E00
220.22	0.0000E00
220.44	0.0000E00
220.66	0.0000E00
220.88	0.0000E00
221.09	0.0000E00
221.31	0.0000E00
221.53	0.0000E00
221.74	0.0000E00
221.96	0.0000E00
222.17	0.0000E00
222.39	0.0000E00
222.61	0.0000E00
222.82	0.0000E00
223.04	0.0000E00
223.26	0.0000E00
223.47	-0.0000E00
223.69	0.0000E00
223.91	0.0000E00
224.12	0.0000E00
224.34	0.0000E00
224.56	0.0000E00
224.77	0.0000E00
224.99	0.0000E00
225.21	0.0000E00
225.42	0.0000E00
225.64	0.0000E00
225.86	0.0000E00
226.07	0.0000E00
226.29	0.0000E00
226.50	0.0000E00
226.72	0.0000E00
226.94	0.0000E00
227.15	0.0000E00
227.37	0.0000E00
227.59	0.0000E00
227.80	0.0000E00
228.02	0.0000E00
228.24	0.0000E00
228.45	0.0000E00
228.67	-0.0000E00
228.88	0.0000E00
229.10	0.0000E00
229.32	0.0000E00
229.53	0.0000E00
229.75	0.0000E00
229.97	0.0000E00
230.18	0.0000E00
230.40	0.0000E00
230.61	0.0000E00
230.83	0.0000E00
231.05	0.0000E00
231.26	0.0000E00
231.48	0.0000E00
231.70	0.0000E00
231.91	0.0000E00
232.13	0.0000E00
232.34	0.0000E00
232.56	0.0000E00
232.78	0.0000E00
232.99	0.0000E00
233.21	0.0000E00
233.42	0.0000E00
233.64	0.0000E00
233.86	0.0000E00
234.07	0.0000E00
234.29	0.0000E00
234.50	0.0000E00
234.72	0.0000E00
234.94	0.0000E00
235.15	0.0000E00
235.37	0.0000E00
235.58	0.0000E00
235.80	0.0000E00
236.02	0.0000E00
236.23	0.0000E00
236.45	0.0000E00
236.66	0.0000E00
236.88	0.0000E00
237.10	0.0000E00
237.31	0.0000E00
237.53	0.0000E00
237.74	0.0000E00
237.96	0.0000E00
238.17	0.0000E00
238.39	0.0000E00
238.61	0.0000E00
238.82	0.0000E00
239.04	0.0000E00
239.25	0.0000E00
239.47	0.0000E00
239.69	0.0000E00
239.90	0.0000E00
240.12	0.0000E00
240.33	0.0000E00
240.55	0.0000E00
240.76	0.0000E00
240.98	0.0000E00
241.20	0.0000E00
241.41	0.0000E00
241.63	0.0000E00
241.84	0.0000E00
242.06	0.0000E00
242.27	0.0000E00
242.49	0.0000E00
242.70	0.0000E00
242.92	0.0000E00
243.14	0.0000E00
243.35	0.0000E00
243.57	0.0000E00
243.78	0.0000E00
244.00	0.0000E00
244.21	0.0000E00
244.43	0.0000E00
244.64	0.0000E00
244.86	0.0000E00
245.08	0.0000E00
245.29	0.0000E00
245.51	0.0000E00
245.72	0.0000E00
245.94	0.0000E00
246.15	0.0000E00
246.37	0.0000E00
246.58	0.0000E00
246.80	0.0000E00
247.01	0.0000E00
247.23	0.0000E00
247.45	0.0000E00
247.66	0.0000E00
247.88	0.0000E00
248.09	0.0000E00
248.31	0.0000E00
248.52	0.0000E00
248.74	0.0000E00
248.95	0.0000E00
249.17	0.0000E00
249.38	0.0000E00
249.60	0.0000E00
249.81	0.0000E00
250.03	0.0000E00
250.24	0.0000E00
250.46	0.0000E00
250.67	0.0000E00
250.89	0.0000E00
251.10	0.0000E00
251.32	0.0000E00
251.53	0.0000E00
251.75	0.0000E00
251.97	0.0000E00
252.18	0.0000E00
252.40	0.0000E00
252.61	0.0000E00
252.83	0.0000E00
253.04	0.0000E00
253.26	0.0000E00
253.47	0.0000E00
253.69	0.0000E00
253.90	0.0000E00
254.12	0.0000E00
254.33	0.0000E00
254.55	0.0000E00
254.76	0.0000E00
254.98	0.0000E00
255.19	0.0000E00
255.41	0.0000E00
255.62	0.0000E00
255.84	0.0000E00
256.05	0.0000E00
256.27	0.0000E00
256.48	0.0000E00
256.70	0.0000E00
256.91	0.0000E00
257.13	0.0000E00
257.34	0.0000E00
257.55	0.0000E00
257.77	0.0000E00
257.98	0.0000E00
258.20	0.0000E00
258.41	0.0000E00
258.63	0.0000E00
258.84	0.0000E00
259.06	0.0000E00
259.27	0.0000E00
259.49	0.0000E00
259.70	0.0000E00
259.92	0.0000E00
260.13	0.0000E00
260.35	0.0000E00
260.56	0.0000E00
260.78	0.0000E00
260.99	0.0000E00
261.21	0.0000E00
261.42	0.0000E00
261.63	0.0000E00
261.85	0.0000E00
262.06	0.0000E00
262.28	0.0000E00
262.49	0.0000E00
262.71	0.0000E00
262.92	0.0000E00
263.14	0.0000E00
263.35	0.0000E00
263.57	0.0000E00
263.78	0.0000E00
264.00	0.0000E00
264.21	0.0000E00
264.42	0.0000E00
264.64	0.0000E00
264.85	0.0000E00
265.07	0.0000E00
265.28	0.0000E00
265.50	0.0000E00
265.71	0.0000E00
265.93	0.0000E00
266.14	0.0000E00
266.35	0.0000E00
266.57	0.0000E00
266.78	0.0000E00
267.00	0.0000E00
267.21	0.0000E00
267.43	0.0000E00
267.64	0.0000E00
267.85	0.0000E00
268.07	0.0000E00
268.28	0.0000E00
268.50	0.0000E00
268.71	0.0000E00
268.93	0.0000E00
269.14	0.0000E00
269.35	0.0000E00
269.57	0.0000E00
269.78	0.0000E00
270.00	0.0000E00
270.21	0.0000E00
270.43	0.0000E00
270.64	0.0000E00
270.85	0.0000E00
271.07	0.0000E00
271.28	0.0000E00
271.50	0.0000E00
271.71	0.0000E00
271.92	0.0000E00
272.14	0.0000E00
272.35	0.0000E00
272.57	0.0000E00
272.78	0.0000E00
272.99	0.0000E00
273.21	0.0000E00
273.42	0.0000E00
273.64	0.0000E00
273.85	0.0000E00
274.07	0.0000E00
274.28	0.0000E00
274.49	0.0000E00
274.71	0.0000E00
274.92	0.0000E00
275.13	0.0000E00
275.35	0.0000E00
275.56	0.0000E00
275.78	0.0000E00
275.99	0.0000E00
276.20	0.0000E00
276.42	0.0000E00
276.63	0.0000E00
276.85	0.0000E00
277.06	0.0000E00
277.27	0.0000E00
277.49	0.0000E00
277.70	0.0000E00
277.92	0.0000E00
278.13	0.0000E00
278.34	0.0000E00
278.56	0.0000E00
278.77	0.0000E00
278.98	0.0000E00
279.20	0.0000E00
279.41	0.0000E00
279.63	0.0000E00
279.84	0.0000E00
280.05	0.0000E00
280.27	0.0000E00
280.48	0.0000E00
280.69	0.0000E00
280.91	0.0000E00
281.12	0.0000E00
281.33	0.0000E00
281.55	0.0000E00
281.76	0.0000E00
281.98	0.0000E00
282.19	0.0000E00
282.40	0.0000E00
282.62	0.0000E00
282.83	0.0000E00
283.04	0.0000E00
283.26	0.0000E00
283.47	0.0000E00
283.68	0.0000E00
283.90	0.0000E00
284.11	0.0000E00
284.32	0.0000E00
284.54	0.0000E00
284.75	0.0000E00
284.96	0.0000E00
285.18	0.0000E00
285.39	0.0000E00
285.60	0.0000E00
285.82	0.0000E00
286.03	0.0000E00
286.24	0.0000E00
286.46	0.0000E00
286.67	0.0000E00
286.88	0.0000E00
287.10	0.0000E00
287.31	0.0000E00
287.52	0.0000E00
287.74	0.0000E00
287.95	0.0000E00
288.16	0.0000E00
288.38	0.0000E00
288.59	-0.0000E00
288.80	0.0000E00
289.02	0.0000E00
289.23	0.0000E00
289.44	0.0000E00
289.66	0.0000E00
289.87	0.0000E00
290.08	0.0000E00
290.30	0.0000E00
290.51	0.0000E00
290.72	0.0000E00
290.94	0.0000E00
291.15	0.0000E00
291.36	0.0000E00
291.57	0.0000E00
291.79	0.0000E00
292.00	0.0000E00
292.21	0.0000E00
292.43	0.0000E00
292.64	0.0000E00
292.85	0.0000E00
293.07	0.0000E00
293.28	0.0000E00
293.49	0.0000E00
293.70	0.0000E00
293.92	0.0000E00
294.13	0.0000E00
294.34	0.0000E00
294.56	0.0000E00
294.77	0.0000E00
294.98	0.0000E00
295.20	0.0000E00
295.41	0.0000E00
295.62	0.0000E00
295.83	0.0000E00
296.05	0.0000E00
296.26	0.0000E00
296.47	0.0000E00
296.69	0.0000E00
296.90	0.0000E00
297.11	0.0000E00
297.32	0.0000E00
297.54	0.0000E00
297.75	0.0000E00
297.96	0.0000E00
298.17	0.0000E00
298.39	0.0000E00
298.60	0.0000E00
298.81	0.0000E00
299.03	0.0000E00
299.24	0.0000E00
299.45	0.0000E00
299.66	0.0000E00
299.88	0.0000E00
300.09	2.2154E-02
300.30	1.8541E-02
300.51	2.8581E-02
300.73	1.9207E-02
300.94	2.2380E-02
301.15	2.6328E-02
301.36	1.6778E-02
301.58	2.0577E-02
301.79	3.5598E-02
302.00	2.1373E-02
302.21	1.8812E-02
302.43	2.7805E-02
302.64	1.8952E-02
302.85	2.7363E-02
303.06	1.6174E-02
303.28	2.5423E-02
303.49	1.8548E-02
303.70	3.1120E-02
303.91	2.0029E-02
304.13	1.7971E-02
304.34	2.2727E-02
304.55	3.1750E-02
304.76	1.5204E-02
304.98	1.8998E-02
305.19	2.8088E-02
305.40	1.6410E-02
305.61	2.5342E-02
305.82	1.9456E-02
306.04	2.7417E-02
306.25	1.6063E-02
306.46	3.0852E-02
306.67	1.9238E-02
306.89	2.0860E-02
307.10	2.8117E-02
307.31	2.6986E-02
307.52	2.3407E-02
307.74	3.1401E-02
307.95	3.1310E-02
308.16	1.4776E-02
308.37	2.5790E-02
308.58	2.2941E-02
308.80	3.0009E-02
309.01	2.7601E-02
309.22	1.6465E-02
309.43	2.1285E-02
309.64	2.9776E-02
309.86	3.6174E-02
310.07	2.6752E-02
310.28	3.0129E-02
310.49	3.1483E-02
310.70	2.2960E-02
310.92	3.2783E-02
311.13	2.8016E-02
311.34	3.0115E-02
311.55	3.0964E-02
311.76	2.9295E-02
311.98	4.2629E-02
312.19	3.0590E-02
312.40	2.5400E-02
312.61	2.8534E-02
312.82	3.4523E-02
313.04	2.6217E-02
313.25	3.5531E-02
313.46	2.8491E-02
313.67	2.9091E-02
313.88	3.2097E-02
314.10	2.9067E-02
314.31	2.9202E-02
314.52	3.0578E-02
314.73	3.3754E-02
314.94	4.1228E-02
315.16	4.2296E-02
315.37	4.9268E-02
315.58	3.3278E-02
315.79	4.1142E-02
316.00	4.3812E-02
316.21	4.8513E-02
316.43	3.0968E-02
316.64	3.5932E-02
316.85	3.3462E-02
317.06	4.1651E-02
317.27	4.6154E-02
317.48	3.6848E-02
317.70	3.9411E-02
317.91	3.7437E-02
318.12	4.6284E-02
318.33	3.4416E-02
318.54	3.8000E-02
318.75	4.0536E-02
318.97	4.8602E-02
319.18	4.0259E-02
319.39	3.7215E-02
319.60	3.9708E-02
319.81	4.5729E-02
320.02	3.8070E-02
320.24	3.8809E-02
320.45	4.3211E-02
320.66	3.3213E-02
320.87	4.0926E-02
321.08	4.8361E-02
321.29	4.7020E-02
321.50	3.9404E-02
321.72	3.6567E-02
321.93	5.0812E-02
322.14	4.1245E-02
322.35	5.1202E-02
322.56	5.2169E-02
322.77	5.5727E-02
322.98	4.3612E-02
323.20	5.4135E-02
323.41	3.8867E-02
323.62	3.8557E-02
323.83	4.7803E-02
324.04	3.9325E-02
324.25	3.8653E-02
324.46	4.3606E-02
324.67	4.5438E-02
324.89	4.2929E-02
325.10	4.1300E-02
325.31	5.4353E-02
325.52	4.8243E-02
325.73	4.1301E-02
325.94	4.4883E-02
326.15	3.7429E-02
326.36	5.4125E-02
326.58	5.7656E-02
326.79	5.5721E-02
327.00	3.4791E-02
327.21	5.4326E-02
327.42	5.3721E-02
327.63	5.3479E-02
327.84	5.0471E-02
328.05	5.7906E-02
328.26	3.8827E-02
328.48	5.1730E-02
328.69	5.6797E-02
328.90	5.1239E-02
329.11	5.1395E-02
329.32	5.1277E-02
329.53	4.5074E-02
329.74	5.0545E-02
329.95	5.8281E-02
330.16	5.4736E-02
330.37	4.8907E-02
330.59	6.7344E-02
330.80	5.6739E-02
331.01	5.7539E-02
331.22	5.5668E-02
331.43	4.6860E-02
331.64	4.6340E-02
331.85	6.3103E-02
332.06	6.0405E-02
332.27	4.7599E-02
332.48	5.9847E-02
332.69	6.4882E-02
332.91	5.7854E-02
333.12	5.6823E-02
333.33	7.0850E-02
333.54	5.0324E-02
333.75	4.6347E-02
333.96	5.1436E-02
334.17	4.8443E-02
334.38	5.0274E-02
334.59	5.7708E-02
334.80	5.9521E-02
335.01	5.7815E-02
335.22	5.1858E-02
335.43	5.0531E-02
335.64	5.3704E-02
335.86	5.7054E-02
336.07	5.6463E-02
336.28	4.3695E-02
336.49	5.7233E-02
336.70	4.7332E-02
336.91	4.7693E-02
337.12	4.4644E-02
337.33	6.0375E-02
337.54	5.0146E-02
337.75	4.7705E-02
337.96	5.8087E-02
338.17	5.6872E-02
338.38	4.5671E-02
338.59	5.9760E-02
338.80	4.3505E-02
339.01	6.0925E-02
339.22	5.8755E-02
339.43	5.8893E-02
339.65	5.2144E-02
339.86	4.6198E-02
340.07	4.5062E-02
340.28	5.3688E-02
340.49	5.2946E-02
340.70	5.5020E-02
340.91	4.5718E-02
341.12	4.1815E-02
341.33	5.2491E-02
341.54	5.7107E-02
341.75	4.7891E-02
341.96	5.0925E-02
342.17	5.4324E-02
342.38	4.7795E-02
342.59	5.1686E-02
342.80	4.2993E-02
343.01	4.9506E-02
343.22	4.8277E-02
343.43	4.5355E-02
343.64	4.1611E-02
343.85	5.0453E-02
344.06	3.7826E-02
344.27	4.9302E-02
344.48	5.7777E-02
344.69	4.9980E-02
344.90	5.1863E-02
345.11	4.7037E-02
345.32	4.5258E-02
345.53	3.6203E-02
345.74	5.2225E-02
345.95	3.9653E-02
346.16	4.7923E-02
346.37	4.7632E-02
346.58	4.7465E-02
346.79	4.1351E-02
347.00	5.1762E-02
347.21	5.3206E-02
347.42	4.4353E-02
347.63	3.8269E-02
347.84	4.7789E-02
348.05	5.2748E-02
348.26	4.6210E-02
348.47	4.9311E-02
348.68	4.8086E-02
348.89	3.7024E-02
349.10	4.5309E-02
349.31	4.8407E-02
349.52	4.3025E-02
349.73	4.5792E-02
349.94	4.6632E-02
350.15	4.0460E-02
350.36	5.4820E-02
350.57	5.1168E-02
350.78	5.2522E-02
350.99	5.2253E-02
351.20	4.5661E-02
351.41	5.1407E-02
351.62	4.6401E-02
351.83	4.7716E-02
352.04	4.7091E-02
352.25	5.2694E-02
352.46	4.8437E-02
352.67	4.4562E-02
352.88	5.8442E-02
353.09	3.6786E-02
353.30	4.7692E-02
353.51	4.9904E-02
353.72	5.8506E-02
353.93	4.8797E-02
354.14	4.4441E-02
354.35	5.8278E-02
354.56	4.9035E-02
354.77	6.2826E-02
354.98	4.2590E-02
355.19	4.8935E-02
355.39	5.0536E-02
355.60	4.8018E-02
355.81	5.2999E-02
356.02	5.5739E-02
356.23	4.2922E-02
356.44	4.0253E-02
356.65	5.3768E-02
356.86	4.6337E-02
357.07	4.5044E-02
357.28	5.3171E-02
357.49	4.8660E-02
357.70	5.2813E-02
357.91	4.1996E-02
358.12	4.1967E-02
358.33	5.1026E-02
358.54	5.3454E-02
358.75	4.7739E-02
358.96	5.3607E-02
359.16	3.9775E-02
359.37	5.6913E-02
359.58	5.2149E-02
359.79	4.9106E-02
360.00	4.9558E-02
360.21	5.1153E-02
360.42	4.9073E-02
360.63	6.9281E-02
360.84	6.0117E-02
361.05	4.4302E-02
361.26	5.4391E-02
361.47	6.2972E-02
361.68	5.3561E-02
361.88	5.8555E-02
362.09	5.2061E-02
362.30	5.8326E-02
362.51	5.4875E-02
362.72	6.6291E-02
362.93	5.6689E-02
363.14	5.9169E-02
363.35	5.6126E-02
363.56	5.4453E-02
363.77	6.6560E-02
363.98	6.2415E-02
364.18	6.9033E-02
364.39	6.6449E-02
364.60	6.1203E-02
364.81	6.3754E-02
365.02	6.5511E-02
365.23	6.7197E-02
365.44	6.7283E-02
365.65	6.6309E-02
365.86	5.5999E-02
366.07	7.4097E-02
366.27	6.7779E-02
366.48	7.1600E-02
366.69	6.8250E-02
366.90	7.5202E-02
367.11	7.1709E-02
367.32	7.3236E-02
367.53	6.7196E-02
367.74	6.3882E-02
367.95	6.4485E-02
368.15	6.8166E-02
368.36	7.3209E-02
368.57	5.9941E-02
368.78	7.9362E-02
368.99	6.7575E-02
369.20	6.6462E-02
369.41	7.3393E-02
369.62	6.9294E-02
369.82	7.8655E-02
370.03	6.9509E-02
370.24	7.2773E-02
370.45	6.7955E-02
370.66	6.2352E-02
370.87	6.2548E-02
371.08	6.4674E-02
371.28	6.4346E-02
371.49	6.5510E-02
371.70	6.4509E-02
371.91	6.5035E-02
372.12	5.8809E-02
372.33	5.8824E-02
372.54	6.3987E-02
372.74	6.2920E-02
372.95	5.1991E-02
373.16	6.5870E-02
373.37	6.8184E-02
373.58	5.2733E-02
373.79	6.5013E-02
374.00	6.0487E-02
374.20	7.0886E-02
374.41	6.8518E-02
374.62	6.2171E-02
374.83	6.1817E-02
375.04	6.4159E-02
375.25	6.5516E-02
375.45	5.0309E-02
375.66	6.7490E-02
375.87	6.5780E-02
376.08	6.9879E-02
376.29	6.8742E-02
376.50	6.6857E-02
376.70	6.4849E-02
376.91	7.0141E-02
377.12	7.0906E-02
377.33	5.9281E-02
377.54	6.1789E-02
377.75	7.0204E-02
377.95	6.3786E-02
378.16	6.6575E-02
378.37	6.0615E-02
378.58	6.9836E-02
378.79	5.5891E-02
379.00	7.1148E-02
379.20	6.1713E-02
379.41	6.6040E-02
379.62	6.8560E-02
379.83	6.3099E-02
380.04	6.5411E-02
380.24	6.0693E-02
380.45	5.4117E-02
380.66	5.6632E-02
380.87	6.1708E-02
381.08	6.2920E-02
381.28	5.5114E-02
381.49	6.1720E-02
381.70	5.4238E-02
381.91	5.7349E-02
382.12	6.2295E-02
382.32	5.6189E-02
382.53	6.1648E-02
382.74	5.2730E-02
382.95	5.6626E-02
383.16	5.9854E-02
383.36	4.7420E-02
383.57	5.8666E-02
383.78	6.2045E-02
383.99	5.3548E-02
384.20	5.5902E-02
384.40	5.6766E-02
384.61	6.3407E-02
384.82	6.6120E-02
385.03	5.9784E-02
385.23	6.2256E-02
385.44	6.2885E-02
385.65	6.6849E-02
385.86	5.7461E-02
386.07	7.4556E-02
386.27	5.3660E-02
386.48	6.1261E-02
386.69	6.6702E-02
386.90	4.8840E-02
387.10	5.9949E-02
387.31	6.7563E-02
387.52	6.0353E-02
387.73	6.4672E-02
387.94	6.9793E-02
388.14	5.7249E-02
388.35	6.2440E-02
388.56	7.8907E-02
388.77	7.0944E-02
388.97	7.1339E-02
389.18	7.7202E-02
389.39	6.7590E-02
389.60	6.9774E-02
389.80	7.7477E-02
390.01	7.3994E-02
390.22	7.3737E-02
390.43	6.2654E-02
390.63	6.6189E-02
390.84	6.5694E-02
391.05	7.7424E-02
391.26	6.7635E-02
391.46	6.5923E-02
391.67	6.6032E-02
391.88	5.7609E-02
392.09	5.7791E-02
392.29	6.8868E-02
392.50	6.0563E-02
392.71	6.4317E-02
392.92	6.5875E-02
393.12	6.4303E-02
393.33	6.9127E-02
393.54	6.1045E-02
393.74	5.5574E-02
393.95	6.0249E-02
394.16	6.8139E-02
394.37	6.1115E-02
394.57	6.1730E-02
394.78	6.7570E-02
394.99	6.3605E-02
395.19	6.2943E-02
395.40	6.2483E-02
395.61	6.1928E-02
395.82	7.0298E-02
396.02	6.4486E-02
396.23	7.0793E-02
396.44	7.2142E-02
396.65	6.8084E-02
396.85	7.6676E-02
397.06	7.3882E-02
397.27	7.7774E-02
397.47	8.2738E-02
397.68	7.7811E-02
397.89	7.5229E-02
398.09	7.4037E-02
398.30	8.0820E-02
398.51	7.5230E-02
398.72	8.2991E-02
398.92	9.0641E-02
399.13	9.1963E-02
399.34	9.7012E-02
399.54	9.8263E-02
399.75	9.4777E-02
399.96	8.8890E-02
400.16	8.8682E-02
400.37	9.6487E-02
400.58	9.5488E-02
400.78	9.8063E-02
400.99	9.4376E-02
401.20	1.0170E-01
401.41	9.8715E-02
401.61	9.1572E-02
401.82	9.7802E-02
402.03	9.2033E-02
402.23	9.1624E-02
402.44	1.0027E-01
402.65	9.4938E-02
402.85	9.5599E-02
403.06	9.5819E-02
403.27	9.8120E-02
403.47	9.6091E-02
403.68	9.1274E-02
403.89	9.7772E-02
404.09	9.2805E-02
404.30	8.7086E-02
404.51	9.7514E-02
404.71	9.5763E-02
404.92	1.0039E-01
405.13	8.3989E-02
405.33	8.9512E-02
405.54	9.0494E-02
405.75	9.3118E-02
405.95	9.1643E-02
406.16	8.1917E-02
406.37	9.2605E-02
406.57	9.3306E-02
406.78	9.5653E-02
406.99	9.3922E-02
407.19	9.7182E-02
407.40	1.0147E-01
407.60	9.8484E-02
407.81	9.7005E-02
408.02	9.0346E-02
408.22	9.2191E-02
408.43	9.9682E-02
408.64	9.6445E-02
408.84	9.5455E-02
409.05	8.7600E-02
409.26	9.9307E-02
409.46	1.0157E-01
409.67	9.3974E-02
409.87	9.8441E-02
410.08	9.6075E-02
410.29	1.0446E-01
410.49	8.9641E-02
410.70	9.9755E-02
410.91	9.6973E-02
411.11	1.0307E-01
411.32	9.9660E-02
411.52	9.1512E-02
411.73	1.0271E-01
411.94	1.0138E-01
412.14	1.0375E-01
412.35	9.7517E-02
412.56	1.0427E-01
412.76	1.0347E-01
412.97	9.7713E-02
413.17	1.0169E-01
413.38	1.0716E-01
413.59	9.7930E-02
413.79	1.0053E-01
414.00	1.0368E-01
414.20	1.0652E-01
414.41	9.6611E-02
414.62	1.0405E-01
414.82	9.8996E-02
415.03	9.3681E-02
415.23	1.0344E-01
415.44	9.5283E-02
415.65	1.0173E-01
415.85	9.5166E-02
416.06	1.0381E-01
416.26	1.0068E-01
416.47	1.0266E-01
416.68	1.0685E-01
416.88	1.0941E-01
417.09	9.0553E-02
417.29	1.0058E-01
417.50	1.0409E-01
417.71	1.0217E-01
417.91	1.0018E-01
418.12	9.8783E-02
418.32	1.0624E-01
418.53	1.0535E-01
418.73	9.8821E-02
418.94	9.9360E-02
419.15	9.8241E-02
419.35	1.0912E-01
419.56	1.0380E-01
419.76	9.5523E-02
419.97	1.1005E-01
420.17	1.0498E-01
420.38	9.3043E-02
420.59	1.0783E-01
420.79	1.0867E-01
421.00	1.0197E-01
421.20	9.2612E-02
421.41	1.0075E-01
421.61	9.8725E-02
421.82	1.0293E-01
422.02	1.0041E-01
422.23	8.9123E-02
422.44	1.0856E-01
422.64	9.8336E-02
422.85	1.0044E-01
423.05	1.0146E-01
423.26	1.0291E-01
423.46	1.0076E-01
423.67	9.7422E-02
423.87	9.8085E-02
424.08	9.5988E-02
424.29	9.5510E-02
424.49	1.0236E-01
424.70	9.1158E-02
424.90	1.0019E-01
425.11	1.0068E-01
425.31	9.8864E-02
425.52	1.0242E-01
425.72	9.5262E-02
425.93	9.7948E-02
426.13	9.4041E-02
426.34	9.5771E-02
426.54	9.5392E-02
426.75	9.6755E-02
426.95	9.6749E-02
427.16	9.7798E-02
427.36	9.6327E-02
427.57	9.1767E-02
427.78	9.0849E-02
427.98	9.1578E-02
428.19	9.3885E-02
428.39	8.8973E-02
428.60	9.0422E-02
428.80	9.2295E-02
429.01	9.6641E-02
429.21	8.5965E-02
429.42	1.0148E-01
429.62	9.9178E-02
429.83	9.4004E-02
430.03	8.8143E-02
430.24	9.8067E-02
430.44	9.0004E-02
430.65	9.5958E-02
430.85	9.7497E-02
431.06	9.1492E-02
431.26	1.0062E-01
431.47	8.9491E-02
431.67	1.0594E-01
431.88	1.0115E-01
432.08	1.0385E-01
432.29	1.0363E-01
432.49	9.7504E-02
432.70	9.6895E-02
432.90	1.0676E-01
433.11	1.0477E-01
433.31	9.2258E-02
433.52	1.0159E-01
433.72	9.8164E-02
433.93	1.0168E-01
434.13	1.0052E-01
434.34	1.1006E-01
434.54	9.8629E-02
434.74	1.0195E-01
434.95	1.0404E-01
435.15	1.0122E-01
435.36	1.0403E-01
435.56	9.8308E-02
435.77	1.0540E-01
435.97	9.8186E-02
436.18	1.1579E-01
436.38	1.0651E-01
436.59	1.0255E-01
436.79	1.0993E-01
437.00	1.0806E-01
437.20	1.0494E-01
437.41	1.0355E-01
437.61	1.0654E-01
437.81	1.0539E-01
438.02	1.0514E-01
438.22	1.0854E-01
438.43	1.0051E-01
438.63	1.1372E-01
438.84	1.0449E-01
439.04	1.0530E-01
439.25	1.0741E-01
439.45	1.0185E-01
439.66	1.0302E-01
439.86	1.0474E-01
440.06	1.1491E-01
440.27	1.0548E-01
440.47	1.0120E-01
440.68	1.1305E-01
440.88	1.0861E-01
441.09	1.1391E-01
441.29	1.1265E-01
441.49	1.1129E-01
441.70	1.1720E-01
441.90	1.1325E-01
442.11	1.1616E-01
442.31	1.1981E-01
442.52	1.1242E-01
442.72	1.1253E-01
442.92	1.0719E-01
443.13	1.1590E-01
443.33	1.0434E-01
443.54	1.1224E-01
443.74	1.1112E-01
443.95	1.1683E-01
444.15	1.1341E-01
444.35	1.1810E-01
444.56	1.1226E-01
444.76	1.0809E-01
444.97	1.2248E-01
445.17	1.1734E-01
445.37	1.2551E-01
445.58	1.1358E-01
445.78	1.1639E-01
445.99	1.0996E-01
446.19	1.1026E-01
446.39	1.1246E-01
446.60	1.0825E-01
446.80	1.0945E-01
447.01	1.1794E-01
447.21	1.2364E-01
447.41	1.1327E-01
447.62	1.2173E-01
447.82	1.1754E-01
448.03	1.2115E-01
448.23	1.2058E-01
448.43	1.2185E-01
448.64	1.2391E-01
448.84	1.2307E-01
449.05	1.1944E-01
449.25	1.2397E-01
449.45	1.1820E-01
449.66	1.2027E-01
449.86	1.2189E-01
450.07	1.1681E-01
450.27	1.2209E-01
450.47	1.1902E-01
450.68	1.2179E-01
450.88	1.1843E-01
451.08	1.2102E-01
451.29	1.2321E-01
451.49	1.2279E-01
451.70	1.2206E-01
451.90	1.2476E-01
452.10	1.2402E-01
452.31	1.1615E-01
452.51	1.2409E-01
452.71	1.2212E-01
452.92	1.2055E-01
453.12	1.2596E-01
453.32	1.2109E-01
453.53	1.1130E-01
453.73	1.1307E-01
453.93	1.1382E-01
454.14	1.2483E-01
454.34	1.2211E-01
454.55	1.2439E-01
454.75	1.2226E-01
454.95	1.1828E-01
455.16	1.2815E-01
455.36	1.1945E-01
455.56	1.2888E-01
455.77	1.2591E-01
455.97	1.2263E-01
456.17	1.1877E-01
456.38	1.2253E-01
456.58	1.2791E-01
456.78	1.2079E-01
456.99	1.1477E-01
457.19	1.2008E-01
457.39	1.1948E-01
457.60	1.2212E-01
457.80	1.2124E-01
458.00	1.1944E-01
458.21	1.2648E-01
458.41	1.2495E-01
458.61	1.2059E-01
458.82	1.1964E-01
459.02	1.1627E-01
459.22	1.2769E-01
459.43	1.2535E-01
459.63	1.2269E-01
459.83	1.1927E-01
460.03	1.2252E-01
460.24	1.2601E-01
460.44	1.1997E-01
460.64	1.1634E-01
460.85	1.2377E-01
461.05	1.2228E-01
461.25	1.2305E-01
461.46	1.2016E-01
461.66	1.1692E-01
461.86	1.2247E-01
462.07	1.2485E-01
462.27	1.2180E-01
462.47	1.2644E-01
462.67	1.2025E-01
462.88	1.2350E-01
463.08	1.1501E-01
463.28	1.2129E-01
463.49	1.2597E-01
463.69	1.2174E-01
463.89	1.2270E-01
464.09	1.2396E-01
464.30	1.1944E-01
464.50	1.2502E-01
464.70	1.2609E-01
464.91	1.1455E-01
465.11	1.1583E-01
465.31	1.1713E-01
465.51	1.2287E-01
465.72	1.1988E-01
465.92	1.1969E-01
466.12	1.1554E-01
466.33	1.2127E-01
466.53	1.1904E-01
466.73	1.1591E-01
466.93	1.2146E-01
467.14	1.1541E-01
467.34	1.2763E-01
467.54	1.2094E-01
467.74	1.2150E-01
467.95	1.2000E-01
468.15	1.1708E-01
468.35	1.2123E-01
468.55	1.2381E-01
468.76	1.2329E-01
468.96	1.1201E-01
469.16	1.2024E-01
469.37	1.1927E-01
469.57	1.1997E-01
469.77	1.1579E-01
469.97	1.2026E-01
470.18	1.2251E-01
470.38	1.2370E-01
470.58	1.2054E-01
470.78	1.2307E-01
470.99	1.2162E-01
471.19	1.1826E-01
471.39	1.2157E-01
471.59	1.1529E-01
471.79	1.1911E-01
472.00	1.2032E-01
472.20	1.2279E-01
472.40	1.1778E-01
472.60	1.1821E-01
472.81	1.2562E-01
473.01	1.2361E-01
473.21	1.1898E-01
473.41	1.1205E-01
473.62	1.2377E-01
473.82	1.2605E-01
474.02	1.1859E-01
474.22	1.1896E-01
474.42	1.2804E-01
474.63	1.2224E-01
474.83	1.1928E-01
475.03	1.2024E-01
475.23	1.2210E-01
475.44	1.1867E-01
475.64	1.2015E-01
475.84	1.2165E-01
476.04	1.1929E-01
476.24	1.2034E-01
476.45	1.2127E-01
476.65	1.1812E-01
476.85	1.1716E-01
477.05	1.2154E-01
477.25	1.2337E-01
477.46	1.1975E-01
477.66	1.1841E-01
477.86	1.2242E-01
478.06	1.2260E-01
478.26	1.2262E-01
478.47	1.2057E-01
478.67	1.2673E-01
478.87	1.1994E-01
479.07	1.1599E-01
479.27	1.2028E-01
479.47	1.2198E-01
479.68	1.2108E-01
479.88	1.2206E-01
480.08	1.2100E-01
480.28	1.2188E-01
480.48	1.2122E-01
480.69	1.2270E-01
480.89	1.1988E-01
481.09	1.2026E-01
481.29	1.2570E-01
481.49	1.1247E-01
481.69	1.2198E-01
481.90	1.1887E-01
482.10	1.2006E-01
482.30	1.2358E-01
482.50	1.2055E-01
482.70	1.1716E-01
482.90	1.1726E-01
483.11	1.1721E-01
483.31	1.1729E-01
483.51	1.1045E-01
483.71	1.1198E-01
483.91	1.1306E-01
484.11	1.1258E-01
484.32	1.1250E-01
484.52	1.1410E-01
484.72	1.1354E-01
484.92	1.1244E-01
485.12	1.1205E-01
485.32	1.1089E-01
485.52	1.1005E-01
485.73	1.0619E-01
485.93	1.0520E-01
486.13	1.0621E-01
486.33	1.0764E-01
486.53	1.0959E-01
486.73	1.1053E-01
486.93	1.0901E-01
487.14	1.1445E-01
487.34	1.1362E-01
487.54	1.1317E-01
487.74	1.1558E-01
487.94	1.0777E-01
488.14	1.1389E-01
488.34	1.1379E-01
488.54	1.1314E-01
488.75	1.1292E-01
488.95	1.1424E-01
489.15	1.1324E-01
489.35	1.1197E-01
489.55	1.1294E-01
489.75	1.1534E-01
489.95	1.1378E-01
490.15	1.1393E-01
490.36	1.1649E-01
490.56	1.1480E-01
490.76	1.1793E-01
490.96	1.1681E-01
491.16	1.1776E-01
491.36	1.1639E-01
491.56	1.1583E-01
491.76	1.1047E-01
491.96	1.1583E-01
492.17	1.1506E-01
492.37	1.1685E-01
492.57	1.1866E-01
492.77	1.1867E-01
492.97	1.2147E-01
493.17	1.1883E-01
493.37	1.1787E-01
493.57	1.1717E-01
493.77	1.1694E-01
493.97	1.2119E-01
494.17	1.1716E-01
494.38	1.1856E-01
494.58	1.1613E-01
494.78	1.1652E-01
494.98	1.1639E-01
495.18	1.1876E-01
495.38	1.1818E-01
495.58	1.1935E-01
495.78	1.1916E-01
495.98	1.2158E-01
496.18	1.2072E-01
496.38	1.1763E-01
496.58	1.1390E-01
496.78	1.2034E-01
496.99	1.1588E-01
497.19	1.1965E-01
497.39	1.2097E-01
497.59	1.1863E-01
497.79	1.1472E-01
497.99	1.1792E-01
498.19	1.1919E-01
498.39	1.1994E-01
498.59	1.1614E-01
498.79	1.1555E-01
498.99	1.1521E-01
499.19	1.1767E-01
499.39	1.1823E-01
499.59	1.1575E-01
499.79	1.1632E-01
499.99	1.1626E-01
500.19	1.1935E-01
500.40	1.1647E-01
500.60	1.1923E-01
500.80	1.1829E-01
501.00	1.1731E-01
501.20	1.1601E-01
501.40	1.2054E-01
501.60	1.1745E-01
501.80	1.1742E-01
502.00	1.1974E-01
502.20	1.1773E-01
502.40	1.1766E-01
502.60	1.1444E-01
502.80	1.2213E-01
503.00	1.2011E-01
503.20	1.1819E-01
503.40	1.1661E-01
503.60	1.1831E-01
503.80	1.2163E-01
504.00	1.1928E-01
504.20	1.2189E-01
504.40	1.2116E-01
504.60	1.2311E-01
504.80	1.2311E-01
505.00	1.2243E-01
505.20	1.2504E-01
505.40	1.2311E-01
505.60	1.2220E-01
505.80	1.2394E-01
506.00	1.2376E-01
506.20	1.2288E-01
506.40	1.2315E-01
506.60	1.2308E-01
506.80	1.2078E-01
507.00	1.2290E-01
507.20	1.2434E-01
507.40	1.2612E-01
507.60	1.2309E-01
507.80	1.2467E-01
508.00	1.2540E-01
508.20	1.2854E-01
508.40	1.2656E-01
508.60	1.2376E-01
508.80	1.2228E-01
509.00	1.2990E-01
509.20	1.2736E-01
509.40	1.2575E-01
509.60	1.2759E-01
509.80	1.2591E-01
510.00	1.3065E-01
510.20	1.2977E-01
510.40	1.3104E-01
510.60	1.2826E-01
510.80	1.2715E-01
511.00	1.2697E-01
511.20	1.3323E-01
511.40	1.2903E-01
511.60	1.2989E-01
511.80	1.3056E-01
512.00	1.3079E-01
512.20	1.3262E-01
512.40	1.3008E-01
512.60	1.3110E-01
512.80	1.3158E-01
513.00	1.3392E-01
513.20	1.3254E-01
513.40	1.3023E-01
513.59	1.2874E-01
513.79	1.3213E-01
513.99	1.3075E-01
514.19	1.3179E-01
514.39	1.3003E-01
514.59	1.3275E-01
514.79	1.3014E-01
514.99	1.2981E-01
515.19	1.3143E-01
515.39	1.3210E-01
515.59	1.3275E-01
515.79	1.2773E-01
515.99	1.3422E-01
516.19	1.3315E-01
516.39	1.3210E-01
516.59	1.3371E-01
516.79	1.3692E-01
516.98	1.3192E-01
517.18	1.3704E-01
517.38	1.3717E-01
517.58	1.3793E-01
517.78	1.3863E-01
517.98	1.3960E-01
518.18	1.4143E-01
518.38	1.4750E-01
518.58	1.4406E-01
518.78	1.4429E-01
518.98	1.4532E-01
519.18	1.4831E-01
519.38	1.5183E-01
519.57	1.5150E-01
519.77	1.4974E-01
519.97	1.5421E-01
520.17	1.5408E-01
520.37	1.5510E-01
520.57	1.5809E-01
520.77	1.5960E-01
520.97	1.5994E-01
521.17	1.5994E-01
521.37	1.6361E-01
521.57	1.6607E-01
521.76	1.6337E-01
521.96	1.6705E-01
522.16	1.6623E-01
522.36	1.7111E-01
522.56	1.6517E-01
522.76	1.6823E-01
522.96	1.7221E-01
523.16	1.7023E-01
523.36	1.7360E-01
523.55	1.7046E-01
523.75	1.7189E-01
523.95	1.7261E-01
524.15	1.7069E-01
524.35	1.7274E-01
524.55	1.7373E-01
524.75	1.7583E-01
524.95	1.7714E-01
525.14	1.7547E-01
525.34	1.7448E-01
525.54	1.7246E-01
525.74	1.7561E-01
525.94	1.7687E-01
526.14	1.8028E-01
526.34	1.8010E-01
526.54	1.8337E-01
526.73	1.7904E-01
526.93	1.8462E-01
527.13	1.8579E-01
527.33	1.8727E-01
527.53	1.8986E-01
527.73	1.8750E-01
527.93	1.9100E-01
528.12	1.8708E-01
528.32	1.8989E-01
528.52	1.9465E-01
528.72	1.9669E-01
528.92	1.9443E-01
529.12	1.9502E-01
529.32	1.9652E-01
529.51	1.9863E-01
529.71	1.9932E-01
529.91	1.9939E-01
530.11	2.0208E-01
530.31	2.0558E-01
530.51	2.0141E-01
530.70	2.0122E-01
530.90	2.0466E-01
531.10	2.0294E-01
531.30	2.0540E-01
531.50	2.0471E-01
531.70	2.0570E-01
531.89	2.0272E-01
532.09	2.0420E-01
532.29	2.0408E-01
532.49	2.0872E-01
532.69	2.0756E-01
532.88	2.0684E-01
533.08	2.0467E-01
533.28	2.0770E-01
533.48	2.1232E-01
533.68	2.0986E-01
533.88	2.1487E-01
534.07	2.1426E-01
534.27	2.1400E-01
534.47	2.1663E-01
534.67	2.1050E-01
534.87	2.1603E-01
535.06	2.1646E-01
535.26	2.1465E-01
535.46	2.1363E-01
535.66	2.2206E-01
535.86	2.1673E-01
536.05	2.1675E-01
536.25	2.1849E-01
536.45	2.1906E-01
536.65	2.1844E-01
536.85	2.1662E-01
537.04	2.1917E-01
537.24	2.2308E-01
537.44	2.1464E-01
537.64	2.1273E-01
537.83	2.1979E-01
538.03	2.2079E-01
538.23	2.2336E-01
538.43	2.2214E-01
538.63	2.1789E-01
538.82	2.2048E-01
539.02	2.2087E-01
539.22	2.2272E-01
539.42	2.1896E-01
539.61	2.2206E-01
539.81	2.2271E-01
540.01	2.1860E-01
540.21	2.2117E-01
540.41	2.1966E-01
540.60	2.2114E-01
540.80	2.2166E-01
541.00	2.2210E-01
541.20	2.2628E-01
541.39	2.2569E-01
541.59	2.2500E-01
541.79	2.2591E-01
541.99	2.2973E-01
542.18	2.2733E-01
542.38	2.2719E-01
542.58	2.2721E-01
542.78	2.2925E-01
542.97	2.2498E-01
543.17	2.2995E-01
543.37	2.2710E-01
543.57	2.3231E-01
543.76	2.3667E-01
543.96	2.3476E-01
544.16	2.3116E-01
544.36	2.3391E-01
544.55	2.3990E-01
544.75	2.3682E-01
544.95	2.3945E-01
545.14	2.3129E-01
545.34	2.3944E-01
545.54	2.3519E-01
545.74	2.3716E-01
545.93	2.4093E-01
546.13	2.3972E-01
546.33	2.3640E-01
546.53	2.3533E-01
546.72	2.4195E-01
546.92	2.4181E-01
547.12	2.3846E-01
547.31	2.4133E-01
547.51	2.3949E-01
547.71	2.4475E-01
547.91	2.4433E-01
548.10	2.3800E-01
548.30	2.4135E-01
548.50	2.4762E-01
548.69	2.4546E-01
548.89	2.4493E-01
549.09	2.4549E-01
549.29	2.4374E-01
549.48	2.5312E-01
549.68	2.4325E-01
549.88	2.4907E-01
550.07	2.5069E-01
550.27	2.4959E-01
550.47	2.3154E-01
550.66	2.5591E-01
550.86	2.4597E-01
551.06	2.5605E-01
551.25	2.4927E-01
551.45	2.5573E-01
551.65	2.5653E-01
551.85	2.5945E-01
552.04	2.4814E-01
552.24	2.5448E-01
552.44	2.5088E-01
552.63	2.5075E-01
552.83	2.5501E-01
553.03	2.4931E-01
553.22	2.5891E-01
553.42	2.5308E-01
553.62	2.6090E-01
553.81	2.5375E-01
554.01	2.5833E-01
554.21	2.5273E-01
554.40	2.5727E-01
554.60	2.5521E-01
554.80	2.5823E-01
554.99	2.5751E-01
555.19	2.5688E-01
555.39	2.5867E-01
555.58	2.5457E-01
555.78	2.5650E-01
555.98	2.5499E-01
556.17	2.5499E-01
556.37	2.5670E-01
556.56	2.5661E-01
556.76	2.5586E-01
556.96	2.5231E-01
557.15	2.5454E-01
557.35	2.5232E-01
557.55	2.5144E-01
557.74	2.5075E-01
557.94	2.5408E-01
558.14	2.5601E-01
558.33	2.4977E-01
558.53	2.4874E-01
558.73	2.5185E-01
558.92	2.4737E-01
559.12	2.5634E-01
559.31	2.5764E-01
559.51	2.6060E-01
559.71	2.5530E-01
559.90	2.5801E-01
560.10	2.5760E-01
560.30	2.5691E-01
560.49	2.5390E-01
560.69	2.5799E-01
560.88	2.6150E-01
561.08	2.5253E-01
561.28	2.5428E-01
561.47	2.5892E-01
561.67	2.5995E-01
561.86	2.5615E-01
562.06	2.5862E-01
562.26	2.6168E-01
562.45	2.5849E-01
562.65	2.6141E-01
562.84	2.5480E-01
563.04	2.5728E-01
563.24	2.5560E-01
563.43	2.6039E-01
563.63	2.5993E-01
563.82	2.5617E-01
564.02	2.5947E-01
564.22	2.6119E-01
564.41	2.5397E-01
564.61	2.5775E-01
564.80	2.5903E-01
565.00	2.5480E-01
565.20	2.6056E-01
565.39	2.5221E-01
565.59	2.4932E-01
565.78	2.5425E-01
565.98	2.4852E-01
566.18	2.5728E-01
566.37	2.5342E-01
566.57	2.5112E-01
566.76	2.4912E-01
566.96	2.5559E-01
567.15	2.5026E-01
567.35	2.5833E-01
567.55	2.5300E-01
567.74	2.5375E-01
567.94	2.4995E-01
568.13	2.5365E-01
568.33	2.5693E-01
568.52	2.5598E-01
568.72	2.5179E-01
568.91	2.4948E-01
569.11	2.5086E-01
569.31	2.5715E-01
569.50	2.4934E-01
569.70	2.5364E-01
569.89	2.5156E-01
570.09	2.5001E-01
570.28	2.4783E-01
570.48	2.5054E-01
570.67	2.5525E-01
570.87	2.4680E-01
571.07	2.4746E-01
571.26	2.5258E-01
571.46	2.5070E-01
571.65	2.5288E-01
571.85	2.5478E-01
572.04	2.5124E-01
572.24	2.5672E-01
572.43	2.5052E-01
572.63	2.5580E-01
572.82	2.5138E-01
573.02	2.5534E-01
573.21	2.5054E-01
573.41	2.5352E-01
573.60	2.5757E-01
573.80	2.5503E-01
573.99	2.5250E-01
574.19	2.5845E-01
574.38	2.5456E-01
574.58	2.5601E-01
574.78	2.5022E-01
574.97	2.5636E-01
575.17	2.5371E-01
575.36	2.5116E-01
575.56	2.4847E-01
575.75	2.5734E-01
575.95	2.5199E-01
576.14	2.4962E-01
576.34	2.5663E-01
576.53	2.5132E-01
576.73	2.5262E-01
576.92	2.4814E-01
577.12	2.5814E-01
577.31	2.4508E-01
577.51	2.5751E-01
577.70	2.5266E-01
577.90	2.5269E-01
578.09	2.5545E-01
578.29	2.5053E-01
578.48	2.5714E-01
578.68	2.5276E-01
578.87	2.6123E-01
579.06	2.5191E-01
579.26	2.5613E-01
579.45	2.5189E-01
579.65	2.6133E-01
579.84	2.5412E-01
580.04	2.5811E-01
580.23	2.6062E-01
580.43	2.5036E-01
580.62	2.5654E-01
580.82	2.5684E-01
581.01	2.5447E-01
581.21	2.5379E-01
581.40	2.5254E-01
581.60	2.5889E-01
581.79	2.6040E-01
581.99	2.5432E-01
582.18	2.5449E-01
582.37	2.5778E-01
582.57	2.5740E-01
582.76	2.6075E-01
582.96	2.6187E-01
583.15	2.6046E-01
583.35	2.6010E-01
583.54	2.6146E-01
583.74	2.6054E-01
583.93	2.5650E-01
584.12	2.5325E-01
584.32	2.6228E-01
584.51	2.5871E-01
584.71	2.5203E-01
584.90	2.5308E-01
585.10	2.5409E-01
585.29	2.5510E-01
585.49	2.5607E-01
585.68	2.5837E-01
585.87	2.5545E-01
586.07	2.5402E-01
586.26	2.5237E-01
586.46	2.5254E-01
586.65	2.5025E-01
586.85	2.5237E-01
587.04	2.4309E-01
587.23	2.5259E-01
587.43	2.4960E-01
587.62	2.3882E-01
587.82	2.4804E-01
588.01	2.4268E-01
588.20	2.4403E-01
588.40	2.3945E-01
588.59	2.4316E-01
588.79	2.4451E-01
588.98	2.4805E-01
589.18	2.4340E-01
589.37	2.4707E-01
589.56	2.4009E-01
589.76	2.3752E-01
589.95	2.4848E-01
590.15	2.4449E-01
590.34	2.4042E-01
590.53	2.4876E-01
590.73	2.4403E-01
590.92	2.4450E-01
591.11	2.4888E-01
591.31	2.4858E-01
591.50	2.5198E-01
591.70	2.4927E-01
591.89	2.5532E-01
592.08	2.4731E-01
592.28	2.4560E-01
592.47	2.5422E-01
592.67	2.5362E-01
592.86	2.5416E-01
593.05	2.4723E-01
593.25	2.5517E-01
593.44	2.5214E-01
593.63	2.5867E-01
593.83	2.5240E-01
594.02	2.6049E-01
594.22	2.5976E-01
594.41	2.6364E-01
594.60	2.5787E-01
594.80	2.5899E-01
594.99	2.5974E-01
595.18	2.5988E-01
595.38	2.5756E-01
595.57	2.6001E-01
595.76	2.6186E-01
595.96	2.6025E-01
596.15	2.5425E-01
596.34	2.6862E-01
596.54	2.6728E-01
596.73	2.6350E-01
596.93	2.6621E-01
597.12	2.6251E-01
597.31	2.6716E-01
597.51	2.6357E-01
597.70	2.6494E-01
597.89	2.6282E-01
598.09	2.6055E-01
598.28	2.7257E-01
598.47	2.6239E-01
598.67	2.6466E-01
598.86	2.5996E-01
599.05	2.6970E-01
599.25	2.6489E-01
599.44	2.6847E-01
599.63	2.7225E-01
599.83	2.6530E-01
600.02	2.6568E-01
600.21	2.6646E-01
600.41	2.6867E-01
600.60	2.6182E-01
600.79	2.6774E-01
600.98	2.6808E-01
601.18	2.7511E-01
601.37	2.6484E-01
601.56	2.6746E-01
601.76	2.7959E-01
601.95	2.6779E-01
602.14	2.7068E-01
602.34	2.7056E-01
602.53	2.7689E-01
602.72	2.6930E-01
602.92	2.7432E-01
603.11	2.7092E-01
603.30	2.7605E-01
603.49	2.7158E-01
603.69	2.8036E-01
603.88	2.7492E-01
604.07	2.7923E-01
604.27	2.7467E-01
604.46	2.6979E-01
604.65	2.7567E-01
604.84	2.7446E-01
605.04	2.7844E-01
605.23	2.7534E-01
605.42	2.7563E-01
605.62	2.7710E-01
605.81	2.7201E-01
606.00	2.7345E-01
606.19	2.7776E-01
606.39	2.7782E-01
606.58	2.7214E-01
606.77	2.7358E-01
606.97	2.6967E-01
607.16	2.7643E-01
607.35	2.7800E-01
607.54	2.7342E-01
607.74	2.7962E-01
607.93	2.8052E-01
608.12	2.7304E-01
608.31	2.7616E-01
608.51	2.7732E-01
608.70	2.7328E-01
608.89	2.7194E-01
609.08	2.6752E-01
609.28	2.7339E-01
609.47	2.7392E-01
609.66	2.7567E-01
609.85	2.7673E-01
610.05	2.7845E-01
610.24	2.7174E-01
610.43	2.7543E-01
610.62	2.7310E-01
610.82	2.7116E-01
611.01	2.7579E-01
611.20	2.7319E-01
611.39	2.7442E-01
611.59	2.7363E-01
611.78	2.7711E-01
611.97	2.7574E-01
612.16	2.8212E-01
612.35	2.7328E-01
612.55	2.7444E-01
612.74	2.7919E-01
612.93	2.7811E-01
613.12	2.7136E-01
613.32	2.7607E-01
613.51	2.7818E-01
613.70	2.7733E-01
613.89	2.7813E-01
614.08	2.7945E-01
614.28	2.7809E-01
614.47	2.7400E-01
614.66	2.7638E-01
614.85	2.8101E-01
615.04	2.7962E-01
615.24	2.8566E-01
615.43	2.7884E-01
615.62	2.7616E-01
615.81	2.7690E-01
616.00	2.6892E-01
616.20	2.7643E-01
616.39	2.7790E-01
616.58	2.7823E-01
616.77	2.7866E-01
616.96	2.8794E-01
617.16	2.8726E-01
617.35	2.8511E-01
617.54	2.8058E-01
617.73	2.7887E-01
617.92	2.7996E-01
618.12	2.8715E-01
618.31	2.8402E-01
618.50	2.8694E-01
618.69	2.8401E-01
618.88	2.9371E-01
619.07	2.8855E-01
619.27	2.9088E-01
619.46	2.9185E-01
619.65	2.9850E-01
619.84	2.9000E-01
620.03	2.8889E-01
620.22	2.9727E-01
620.42	2.8312E-01
620.61	2.9845E-01
620.80	2.9547E-01
620.99	2.9382E-01
621.18	3.0067E-01
621.37	2.9171E-01
621.57	2.8375E-01
621.76	2.9485E-01
621.95	2.9306E-01
622.14	2.8699E-01
622.33	2.8429E-01
622.52	2.8835E-01
622.71	2.9293E-01
622.91	2.9505E-01
623.10	2.9269E-01
623.29	2.9096E-01
623.48	2.8777E-01
623.67	2.9325E-01
623.86	2.9296E-01
624.05	2.9252E-01
624.25	2.8683E-01
624.44	2.9469E-01
624.63	2.9951E-01
624.82	2.9401E-01
625.01	2.9057E-01
625.20	2.9784E-01
625.39	2.8660E-01
625.58	2.9560E-01
625.78	2.9792E-01
625.97	2.8509E-01
626.16	2.9089E-01
626.35	2.8972E-01
626.54	2.9757E-01
626.73	2.9787E-01
626.92	2.9376E-01
627.11	2.9310E-01
627.31	2.9231E-01
627.50	2.9133E-01
627.69	2.9588E-01
627.88	2.9858E-01
628.07	2.8110E-01
628.26	2.9148E-01
628.45	2.8827E-01
628.64	2.9060E-01
628.83	2.9074E-01
629.02	2.7964E-01
629.22	3.0030E-01
629.41	2.8856E-01
629.60	2.8079E-01
629.79	2.9645E-01
629.98	2.8848E-01
630.17	2.9392E-01
630.36	2.9210E-01
630.55	2.9280E-01
630.74	2.9487E-01
630.93	3.0035E-01
631.12	2.8882E-01
631.31	2.9037E-01
631.51	2.9984E-01
631.70	2.9827E-01
631.89	2.9157E-01
632.08	2.9375E-01
632.27	2.9686E-01
632.46	2.9465E-01
632.65	2.9577E-01
632.84	2.8840E-01
633.03	3.0284E-01
633.22	2.9598E-01
633.41	3.0288E-01
633.60	3.0249E-01
633.79	2.9685E-01
633.98	2.8874E-01
634.17	2.9829E-01
634.37	2.9862E-01
634.56	3.0432E-01
634.75	2.9201E-01
634.94	3.0227E-01
635.13	2.9659E-01
635.32	3.0304E-01
635.51	3.0167E-01
635.70	2.9243E-01
635.89	3.0862E-01
636.08	2.9654E-01
636.27	2.9090E-01
636.46	3.0102E-01
636.65	2.9519E-01
636.84	2.8929E-01
637.03	3.0025E-01
637.22	2.9904E-01
637.41	2.9607E-01
637.60	2.9984E-01
637.79	3.0154E-01
637.98	2.9894E-01
638.17	2.9812E-01
638.36	2.9098E-01
638.55	2.8475E-01
638.74	2.8641E-01
638.93	2.8906E-01
639.12	2.8700E-01
639.31	2.8916E-01
639.50	2.8635E-01
639.69	2.8488E-01
639.88	2.9406E-01
640.07	2.8671E-01
640.26	2.9485E-01
640.45	2.9089E-01
640.64	2.9326E-01
640.83	2.9208E-01
641.02	2.9819E-01
641.21	2.8960E-01
641.40	2.7800E-01
641.59	2.9018E-01
641.78	2.9138E-01
641.97	2.8868E-01
642.16	2.9299E-01
642.35	2.9108E-01
642.54	2.9168E-01
642.73	2.8734E-01
642.92	2.7207E-01
643.11	2.9117E-01
643.30	2.9185E-01
643.49	2.8269E-01
643.68	2.8530E-01
643.87	2.7661E-01
644.06	2.8379E-01
644.25	2.7727E-01
644.44	2.7910E-01
644.63	2.7689E-01
644.82	2.7691E-01
645.01	2.8112E-01
645.20	2.7980E-01
645.39	2.7502E-01
645.58	2.7293E-01
645.77	2.7358E-01
645.96	2.8130E-01
646.15	2.7466E-01
646.34	2.7619E-01
646.53	2.7378E-01
646.72	2.7602E-01
646.91	2.6701E-01
647.10	2.8249E-01
647.29	2.7136E-01
647.47	2.7635E-01
647.66	2.6955E-01
647.85	2.6518E-01
648.04	2.6624E-01
648.23	2.6672E-01
648.42	2.8271E-01
648.61	2.6139E-01
648.80	2.7114E-01
648.99	2.7579E-01
649.18	2.6448E-01
649.37	2.7405E-01
649.56	2.6890E-01
649.75	2.6599E-01
649.94	2.7555E-01
650.13	2.7294E-01
650.31	2.7445E-01
650.50	2.6934E-01
650.69	2.7456E-01
650.88	2.7089E-01
651.07	2.7237E-01
651.26	2.7538E-01
651.45	2.8447E-01
651.64	2.7771E-01
651.83	2.6978E-01
652.02	2.7608E-01
652.21	2.7127E-01
652.40	2.7148E-01
652.58	2.8624E-01
652.77	2.6899E-01
652.96	2.6620E-01
653.15	2.7567E-01
653.34	2.7460E-01
653.53	2.7535E-01
653.72	2.7385E-01
653.91	2.6406E-01
654.10	2.6681E-01
654.29	2.6006E-01
654.47	2.7439E-01
654.66	2.5503E-01
654.85	2.5733E-01
655.04	2.5159E-01
655.23	2.5953E-01
655.42	2.4768E-01
655.61	2.5648E-01
655.80	2.5431E-01
655.98	2.6079E-01
656.17	2.5931E-01
656.36	2.6253E-01
656.55	2.5609E-01
656.74	2.6806E-01
656.93	2.6631E-01
657.12	2.6775E-01
657.31	2.5919E-01
657.49	2.7575E-01
657.68	2.7067E-01
657.87	2.5694E-01
658.06	2.7782E-01
658.25	2.6724E-01
658.44	2.7587E-01
658.63	2.6963E-01
658.81	2.6779E-01
659.00	2.7483E-01
659.19	2.7107E-01
659.38	2.8542E-01
659.57	2.8525E-01
659.76	2.7601E-01
659.95	2.8875E-01
660.13	2.7039E-01
660.32	2.8197E-01
660.51	2.7837E-01
660.70	2.8604E-01
660.89	2.7854E-01
661.08	2.8134E-01
661.26	2.7570E-01
661.45	2.8372E-01
661.64	2.7732E-01
661.83	2.7603E-01
662.02	2.7863E-01
662.21	2.8410E-01
662.39	2.8777E-01
662.58	2.7960E-01
662.77	2.9280E-01
662.96	2.8595E-01
663.15	2.7686E-01
663.33	2.9036E-01
663.52	2.8052E-01
663.71	2.7998E-01
663.90	2.8014E-01
664.09	2.7101E-01
664.28	2.7796E-01
664.46	2.7187E-01
664.65	2.7341E-01
664.84	2.6766E-01
665.03	2.7656E-01
665.22	2.7906E-01
665.40	2.7741E-01
665.59	2.7198E-01
665.78	2.7152E-01
665.97	2.7176E-01
666.16	2.7834E-01
666.34	2.8345E-01
666.53	2.7176E-01
666.72	2.8329E-01
666.91	2.7662E-01
667.09	2.7757E-01
667.28	2.8365E-01
667.47	2.8180E-01
667.66	2.7759E-01
667.85	2.7709E-01
668.03	2.5132E-01
668.22	2.8329E-01
668.41	2.7745E-01
668.60	2.6106E-01
668.78	2.8208E-01
668.97	2.7412E-01
669.16	2.6797E-01
669.35	2.8196E-01
669.54	2.6838E-01
669.72	2.8239E-01
669.91	2.7476E-01
670.10	2.7813E-01
670.29	2.7658E-01
670.47	2.8245E-01
670.66	2.8522E-01
670.85	2.7758E-01
671.04	2.6843E-01
671.22	2.6812E-01
671.41	2.7689E-01
671.60	2.7803E-01
671.79	2.7884E-01
671.97	2.7271E-01
672.16	2.8694E-01
672.35	2.8189E-01
672.54	2.8268E-01
672.72	2.7612E-01
672.91	2.7085E-01
673.10	2.7692E-01
673.28	2.7288E-01
673.47	2.7465E-01
673.66	2.7560E-01
673.85	2.8878E-01
674.03	2.8083E-01
674.22	2.8029E-01
674.41	2.7303E-01
674.60	2.7475E-01
674.78	2.6342E-01
674.97	2.6945E-01
675.16	2.9252E-01
675.34	2.8298E-01
675.53	2.7486E-01
675.72	2.6909E-01
675.91	2.8981E-01
676.09	2.7949E-01
676.28	2.8629E-01
676.47	2.8189E-01
676.65	2.6895E-01
676.84	2.7849E-01
677.03	2.8473E-01
677.22	2.7488E-01
677.40	2.8377E-01
677.59	2.7955E-01
677.78	2.7487E-01
677.96	2.7888E-01
678.15	2.8505E-01
678.34	2.9347E-01
678.52	2.7416E-01
678.71	2.7757E-01
678.90	2.7978E-01
679.08	2.8326E-01
679.27	2.7409E-01
679.46	2.9234E-01
679.64	2.8411E-01
679.83	2.7987E-01
680.02	2.8192E-01
680.21	2.6652E-01
680.39	2.9035E-01
680.58	2.8353E-01
680.77	2.8016E-01
680.95	2.8094E-01
681.14	2.6813E-01
681.33	2.8048E-01
681.51	2.8647E-01
681.70	2.8303E-01
681.89	2.8756E-01
682.07	2.8016E-01
682.26	2.6521E-01
682.44	2.8386E-01
682.63	2.8233E-01
682.82	2.8659E-01
683.00	2.6343E-01
683.19	2.7753E-01
683.38	2.8132E-01
683.56	2.8436E-01
683.75	2.7823E-01
683.94	2.6552E-01
684.12	2.6409E-01
684.31	2.7735E-01
684.50	2.7797E-01
684.68	2.6586E-01
684.87	2.6583E-01
685.05	2.6919E-01
685.24	2.5543E-01
685.43	2.6398E-01
685.61	2.6309E-01
685.80	2.5285E-01
685.99	2.6259E-01
686.17	2.4943E-01
686.36	2.6432E-01
686.54	2.6377E-01
686.73	2.5957E-01
686.92	2.6064E-01
687.10	2.5538E-01
687.29	2.6560E-01
687.48	2.5444E-01
687.66	2.7287E-01
687.85	2.5867E-01
688.03	2.6415E-01
688.22	2.5289E-01
688.41	2.6919E-01
688.59	2.5457E-01
688.78	2.7214E-01
688.96	2.7632E-01
689.15	2.8501E-01
689.34	2.5831E-01
689.52	2.9028E-01
689.71	2.7935E-01
689.89	2.8692E-01
690.08	2.9797E-01
690.27	2.8848E-01
690.45	2.8462E-01
690.64	2.8326E-01
690.82	2.7728E-01
691.01	2.8997E-01
691.19	2.8624E-01
691.38	2.9257E-01
691.57	3.0033E-01
691.75	2.8832E-01
691.94	3.0407E-01
692.12	2.9552E-01
692.31	3.0812E-01
692.50	3.0085E-01
692.68	3.0759E-01
692.87	3.1607E-01
693.05	3.1018E-01
693.24	2.9887E-01
693.42	3.0602E-01
693.61	3.1431E-01
693.79	3.2268E-01
693.98	3.1077E-01
694.17	3.2046E-01
694.35	3.3144E-01
694.54	3.3262E-01
694.72	3.2660E-01
694.91	3.2959E-01
695.09	3.3193E-01
695.28	3.3422E-01
695.46	3.3759E-01
695.65	3.4013E-01
695.83	3.4243E-01
696.02	3.5119E-01
696.21	3.5354E-01
696.39	3.4445E-01
696.58	3.5324E-01
696.76	3.3011E-01
696.95	3.4492E-01
697.13	3.4794E-01
697.32	3.5478E-01
697.50	3.5468E-01
697.69	3.5851E-01
697.87	3.6678E-01
698.06	3.6739E-01
698.24	3.5681E-01
698.43	3.6171E-01
698.61	3.7968E-01
698.80	3.6886E-01
698.98	3.7915E-01
699.17	3.5375E-01
699.35	3.7415E-01
699.54	3.7039E-01
699.72	3.5905E-01
699.91	3.8386E-01
700.09	3.8493E-01
700.28	3.8825E-01
700.46	3.9005E-01
700.65	3.8550E-01
700.83	3.9304E-01
701.02	3.9953E-01
701.20	3.7438E-01
701.39	4.0716E-01
701.57	3.9851E-01
701.76	3.8698E-01
701.94	3.9815E-01
702.13	4.0437E-01
702.31	3.8473E-01
702.50	4.3179E-01
702.68	4.2297E-01
702.87	4.3037E-01
703.05	4.3300E-01
703.24	4.2814E-01
703.42	4.0289E-01
703.61	4.3845E-01
703.79	4.4402E-01
703.98	4.2273E-01
704.16	4.3262E-01
704.35	4.2934E-01
704.53	4.4052E-01
704.72	4.4267E-01
704.90	4.4864E-01
705.08	4.3696E-01
705.27	4.6172E-01
705.45	4.6019E-01
705.64	4.6824E-01
705.82	4.6477E-01
706.01	4.6587E-01
706.19	4.5991E-01
706.38	4.6575E-01
706.56	4.8454E-01
706.75	4.8172E-01
706.93	4.7800E-01
707.11	4.6392E-01
707.30	4.8576E-01
707.48	4.8400E-01
707.67	4.7435E-01
707.85	4.8289E-01
708.04	4.9307E-01
708.22	4.9169E-01
708.40	4.8450E-01
708.59	4.8110E-01
708.77	5.0532E-01
708.96	4.9810E-01
709.14	5.0418E-01
709.33	4.9888E-01
709.51	5.0984E-01
709.69	5.1026E-01
709.88	5.1614E-01
710.06	5.1373E-01
710.25	5.0500E-01
710.43	5.1655E-01
710.62	5.2811E-01
710.80	5.2028E-01
710.98	5.2759E-01
711.17	5.2430E-01
711.35	5.3250E-01
711.54	5.3847E-01
711.72	5.2745E-01
711.90	5.4158E-01
712.09	5.4249E-01
712.27	5.2563E-01
712.46	5.3908E-01
712.64	5.2703E-01
712.82	5.4763E-01
713.01	5.4931E-01
713.19	5.4857E-01
713.37	5.3891E-01
713.56	5.3709E-01
713.74	5.5033E-01
713.93	5.3887E-01
714.11	5.3135E-01
714.29	5.1781E-01
714.48	5.3944E-01
714.66	5.3780E-01
714.85	5.2545E-01
715.03	5.2569E-01
715.21	5.2021E-01
715.40	5.0764E-01
715.58	5.0749E-01
715.76	4.9560E-01
715.95	4.9996E-01
716.13	5.1370E-01
716.31	5.0205E-01
716.50	4.9642E-01
716.68	4.8644E-01
716.87	4.9633E-01
717.05	4.9335E-01
717.23	4.7668E-01
717.42	4.8624E-01
717.60	4.7904E-01
717.78	4.8662E-01
717.97	4.8591E-01
718.15	4.8021E-01
718.33	4.7314E-01
718.52	4.8422E-01
718.70	4.9059E-01
718.88	4.7897E-01
719.07	5.0870E-01
719.25	4.9220E-01
719.43	5.0239E-01
719.62	4.9909E-01
719.80	5.0191E-01
719.98	5.2150E-01
720.17	5.1633E-01
720.35	5.1777E-01
720.53	5.3311E-01
720.72	5.4251E-01
720.90	5.3514E-01
721.08	5.3128E-01
721.27	5.3884E-01
721.45	5.3987E-01
721.63	5.3811E-01
721.82	5.4902E-01
722.00	5.4086E-01
722.18	5.4364E-01
722.36	5.5864E-01
722.55	5.5511E-01
722.73	5.5700E-01
722.91	5.5735E-01
723.10	5.6815E-01
723.28	5.5979E-01
723.46	5.3749E-01
723.65	5.5616E-01
723.83	5.5715E-01
724.01	5.5306E-01
724.19	5.6575E-01
724.38	5.6727E-01
724.56	5.7230E-01
724.74	5.7942E-01
724.93	5.5562E-01
725.11	5.6159E-01
725.29	5.8025E-01
725.47	5.7936E-01
725.66	5.8268E-01
725.84	5.7886E-01
726.02	5.8315E-01
726.21	5.9958E-01
726.39	5.8543E-01
726.57	5.9172E-01
726.75	5.8686E-01
726.94	6.0412E-01
727.12	5.9095E-01
727.30	5.9019E-01
727.48	5.8558E-01
727.67	6.0438E-01
727.85	5.9611E-01
728.03	6.0573E-01
728.21	6.1951E-01
728.40	6.0350E-01
728.58	6.2611E-01
728.76	6.1673E-01
728.94	6.2730E-01
729.13	6.3739E-01
729.31	6.2294E-01
729.49	6.3585E-01
729.67	6.3998E-01
729.86	6.4825E-01
730.04	6.3596E-01
730.22	6.6201E-01
730.40	6.6217E-01
730.59	6.6758E-01
730.77	6.7413E-01
730.95	6.9218E-01
731.13	6.8829E-01
731.31	6.9696E-01
731.50	6.8328E-01
731.68	7.1650E-01
731.86	7.0664E-01
732.04	7.1807E-01
732.23	7.3401E-01
732.41	7.2651E-01
732.59	7.3475E-01
732.77	7.3960E-01
732.95	7.4354E-01
733.14	7.3900E-01
733.32	7.6239E-01
733.50	7.5462E-01
733.68	7.5558E-01
733.86	7.5506E-01
734.05	7.6616E-01
734.23	7.7154E-01
734.41	7.5109E-01
734.59	7.6703E-01
734.77	7.7281E-01
734.96	7.5266E-01
735.14	7.8344E-01
735.32	7.7983E-01
735.50	7.8027E-01
735.68	7.9899E-01
735.87	7.8846E-01
736.05	8.1237E-01
736.23	7.7917E-01
736.41	8.0986E-01
736.59	8.0457E-01
736.77	8.0144E-01
736.96	7.9950E-01
737.14	7.8857E-01
737.32	8.1636E-01
737.50	8.2408E-01
737.68	8.2090E-01
737.87	8.2923E-01
738.05	8.4405E-01
738.23	8.1207E-01
738.41	8.2829E-01
738.59	8.3529E-01
738.77	8.4336E-01
738.95	8.5753E-01
739.14	8.3606E-01
739.32	8.4083E-01
739.50	8.7018E-01
739.68	8.4630E-01
739.86	8.5618E-01
740.04	8.5572E-01
740.23	8.4231E-01
740.41	8.7047E-01
740.59	8.7436E-01
740.77	8.8342E-01
740.95	8.7311E-01
741.13	8.6728E-01
741.31	8.6412E-01
741.50	8.7016E-01
741.68	8.6584E-01
741.86	8.6489E-01
742.04	8.8665E-01
742.22	8.9258E-01
742.40	8.8680E-01
742.58	8.9467E-01
742.76	8.9965E-01
742.95	8.7265E-01
743.13	9.0763E-01
743.31	8.9951E-01
743.49	8.9572E-01
743.67	9.1548E-01
743.85	9.1049E-01
744.03	9.0109E-01
744.21	9.0992E-01
744.39	8.9515E-01
744.58	9.1946E-01
744.76	9.1948E-01
744.94	9.3269E-01
745.12	9.2244E-01
745.30	9.1134E-01
745.48	9.2802E-01
745.66	9.3319E-01
745.84	9.1009E-01
746.02	9.1164E-01
746.20	9.2262E-01
746.38	9.3179E-01
746.57	9.4881E-01
746.75	9.0704E-01
746.93	9.3385E-01
747.11	9.1340E-01
747.29	9.2619E-01
747.47	9.3918E-01
747.65	9.3559E-01
747.83	9.0885E-01
748.01	9.2915E-01
748.19	9.3341E-01
748.37	9.3109E-01
748.55	9.3089E-01
748.73	9.2259E-01
748.92	9.3290E-01
749.10	9.2096E-01
749.28	9.4041E-01
749.46	9.2477E-01
749.64	9.1601E-01
749.82	9.2282E-01
750.00	9.3718E-01
750.18	9.2994E-01
750.36	9.0946E-01
750.54	9.3178E-01
750.72	9.4194E-01
750.90	9.4177E-01
751.08	9.3005E-01
751.26	9.4315E-01
751.44	9.4293E-01
751.62	9.5603E-01
751.80	9.4213E-01
751.98	9.4959E-01
752.16	9.5471E-01
752.34	9.5711E-01
752.52	9.6368E-01
752.71	9.3665E-01
752.89	9.3327E-01
753.07	9.6779E-01
753.25	9.3826E-01
753.43	9.7372E-01
753.61	9.5322E-01
753.79	9.8171E-01
753.97	9.7613E-01
754.15	9.8310E-01
754.33	9.9241E-01
754.51	9.9529E-01
754.69	9.9816E-01
754.87	9.8990E-01
755.05	9.9469E-01
755.23	1.0080E00
755.41	1.0180E00
755.59	9.3910E-01
755.77	9.8682E-01
755.95	9.8126E-01
756.13	9.5450E-01
756.31	9.8032E-01
756.49	9.7567E-01
756.67	9.5398E-01
756.85	9.4061E-01
757.03	9.2252E-01
757.21	9.1463E-01
757.39	9.0511E-01
757.57	8.9631E-01
757.75	8.5563E-01
757.93	8.1844E-01
758.11	8.1247E-01
758.29	7.9606E-01
758.47	7.6671E-01
758.65	7.5857E-01
758.83	7.6819E-01
759.01	7.3756E-01
759.18	7.1088E-01
759.36	6.6355E-01
759.54	6.7625E-01
759.72	6.4433E-01
759.90	6.4897E-01
760.08	6.4149E-01
760.26	6.3771E-01
760.44	6.1032E-01
760.62	5.8922E-01
760.80	5.8884E-01
760.98	6.2258E-01
761.16	6.2258E-01
761.34	6.0548E-01
761.52	6.3090E-01
761.70	6.0227E-01
761.88	6.1135E-01
762.06	6.1741E-01
762.24	6.1742E-01
762.42	6.2434E-01
762.60	6.2997E-01
762.78	6.4538E-01
762.95	6.4477E-01
763.13	6.6817E-01
763.31	6.8438E-01
763.49	6.8297E-01
763.67	6.9966E-01
763.85	6.8967E-01
764.03	7.3509E-01
764.21	7.2504E-01
764.39	7.5596E-01
764.57	7.8868E-01
764.75	7.8900E-01
764.93	8.3353E-01
765.11	8.1649E-01
765.28	8.5432E-01
765.46	8.6008E-01
765.64	8.6437E-01
765.82	8.8828E-01
766.00	9.0965E-01
766.18	9.2138E-01
766.36	9.3173E-01
766.54	9.3733E-01
766.72	9.5398E-01
766.90	9.9527E-01
767.07	9.6043E-01
767.25	9.8878E-01
767.43	1.0022E00
767.61	1.0232E00
767.79	1.0311E00
767.97	1.0307E00
768.15	1.0245E00
768.33	1.0169E00
768.51	1.0455E00
768.68	1.0518E00
768.86	1.0398E00
769.04	1.0493E00
769.22	1.0871E00
769.40	1.0823E00
769.58	1.0662E00
769.76	1.1049E00
769.94	1.1015E00
770.11	1.0776E00
770.29	1.0910E00
770.47	1.0892E00
770.65	1.0934E00
770.83	1.0911E00
771.01	1.1078E00
771.19	1.1064E00
771.36	1.0871E00
771.54	1.1097E00
771.72	1.0942E00
771.90	1.0762E00
772.08	1.1026E00
772.26	1.1175E00
772.44	1.0792E00
772.61	1.1004E00
772.79	1.0750E00
772.97	1.1075E00
773.15	1.1257E00
773.33	1.0884E00
773.51	1.1106E00
773.68	1.0881E00
773.86	1.0753E00
774.04	1.0886E00
774.22	1.0701E00
774.40	1.0841E00
774.58	1.0975E00
774.75	1.0910E00
774.93	1.0624E00
775.11	1.0984E00
775.29	1.0751E00
775.47	1.0585E00
775.64	1.0906E00
775.82	1.0732E00
776.00	1.0815E00
776.18	1.0584E00
776.36	1.0620E00
776.53	1.0969E00
776.71	1.0606E00
776.89	1.0543E00
777.07	1.0686E00
777.25	1.0652E00
777.42	1.0625E00
777.60	1.0486E00
777.78	1.0694E00
777.96	1.0556E00
778.14	1.0719E00
778.31	1.0537E00
778.49	1.0225E00
778.67	1.0315E00
778.85	1.0434E00
779.03	1.0561E00
779.20	1.0520E00
779.38	1.0447E00
779.56	1.0246E00
779.74	1.0547E00
779.91	1.0370E00
780.09	1.0320E00
780.27	1.0139E00
780.45	1.0250E00
780.62	1.0381E00
780.80	1.0460E00
780.98	1.0121E00
781.16	9.9712E-01
781.34	1.0312E00
781.51	1.0332E00
781.69	1.0366E00
781.87	1.0278E00
782.05	1.0176E00
782.22	1.0222E00
782.40	1.0092E00
782.58	1.0170E00
782.76	9.9489E-01
782.93	1.0195E00
783.11	1.0336E00
783.29	9.9716E-01
783.47	9.9602E-01
783.64	1.0025E00
783.82	9.8532E-01
784.00	9.6095E-01
784.17	9.8427E-01
784.35	9.8841E-01
784.53	9.7913E-01
784.71	9.9220E-01
784.88	9.7641E-01
785.06	1.0059E00
785.24	9.8124E-01
785.42	9.9672E-01
785.59	9.8599E-01
785.77	9.5054E-01
785.95	9.6366E-01
786.12	9.4381E-01
786.30	9.6532E-01
786.48	9.6104E-01
786.65	9.5060E-01
786.83	9.5473E-01
787.01	9.5967E-01
787.19	9.5002E-01
787.36	9.5786E-01
787.54	9.4696E-01
787.72	9.5363E-01
787.89	9.4714E-01
788.07	9.4015E-01
788.25	9.3258E-01
788.42	9.2417E-01
788.60	9.4540E-01
788.78	9.1940E-01
788.96	9.2127E-01
789.13	9.0169E-01
789.31	9.0601E-01
789.49	9.0714E-01
789.66	9.2351E-01
789.84	8.9988E-01
790.02	8.6967E-01
790.19	8.9118E-01
790.37	9.0042E-01
790.55	8.9275E-01
790.72	8.9359E-01
790.90	9.1712E-01
791.08	8.8365E-01
791.25	8.8836E-01
791.43	8.9367E-01
791.61	8.7993E-01
791.78	8.7684E-01
791.96	8.5068E-01
792.14	8.7532E-01
792.31	8.8941E-01
792.49	8.4962E-01
792.67	8.9969E-01
792.84	8.6658E-01
793.02	8.6875E-01
793.19	8.6217E-01
793.37	8.8768E-01
793.55	8.8771E-01
793.72	8.8243E-01
793.90	8.5264E-01
794.08	8.7208E-01
794.25	8.7288E-01
794.43	8.5417E-01
794.61	8.7086E-01
794.78	8.6891E-01
794.96	8.4327E-01
795.13	8.6576E-01
795.31	8.7195E-01
795.49	8.4271E-01
795.66	8.6220E-01
795.84	8.5015E-01
796.01	8.5606E-01
796.19	8.4024E-01
796.37	8.6070E-01
796.54	8.5119E-01
796.72	8.5858E-01
796.90	8.4219E-01
797.07	8.2477E-01
797.25	8.4530E-01
797.42	8.6053E-01
797.60	8.5594E-01
797.78	8.4463E-01
797.95	8.2554E-01
798.13	8.1580E-01
798.30	8.4228E-01
798.48	8.3574E-01
798.66	8.5737E-01
798.83	8.1736E-01
799.01	8.3800E-01
799.18	8.2388E-01
799.36	8.5234E-01
799.53	8.0437E-01
799.71	8.4610E-01
799.89	8.2356E-01
800.06	8.2248E-01
800.24	8.2344E-01
800.41	7.9423E-01
800.59	8.3521E-01
800.76	8.0084E-01
800.94	8.0067E-01
801.12	8.2242E-01
801.29	8.1714E-01
801.47	8.2275E-01
801.64	7.9525E-01
801.82	8.2059E-01
801.99	8.1642E-01
802.17	8.1509E-01
802.34	8.0667E-01
802.52	8.0569E-01
802.70	8.1741E-01
802.87	7.9052E-01
803.05	7.7916E-01
803.22	8.2308E-01
803.40	7.9463E-01
803.57	7.9571E-01
803.75	8.2433E-01
803.92	8.0574E-01
804.10	7.7764E-01
804.27	7.8363E-01
804.45	7.9619E-01
804.63	7.8770E-01
804.80	7.7814E-01
804.98	7.9755E-01
805.15	7.6515E-01
805.33	8.1583E-01
805.50	8.2070E-01
805.68	8.1123E-01
805.85	8.2089E-01
806.03	7.9939E-01
806.20	8.0479E-01
806.38	7.5423E-01
806.55	7.6653E-01
806.73	8.1599E-01
806.90	7.8611E-01
807.08	7.7706E-01
807.25	7.5201E-01
807.43	7.7952E-01
807.60	7.9355E-01
807.78	7.6185E-01
807.95	7.3537E-01
808.13	7.5090E-01
808.30	7.4354E-01
808.48	7.7327E-01
808.65	7.5851E-01
808.83	7.9165E-01
809.00	7.6104E-01
809.18	7.8978E-01
809.35	7.4074E-01
809.53	7.7413E-01
809.70	7.5511E-01
809.88	7.5782E-01
810.05	7.4826E-01
810.23	7.6265E-01
810.40	7.4698E-01
810.57	7.4558E-01
810.75	7.2084E-01
810.92	7.1660E-01
811.10	7.1846E-01
811.27	6.9166E-01
811.45	7.0334E-01
811.62	6.9187E-01
811.80	6.7732E-01
811.97	6.9688E-01
812.15	6.9724E-01
812.32	6.9581E-01
812.50	6.4847E-01
812.67	7.1466E-01
812.84	6.5044E-01
813.02	6.7567E-01
813.19	6.6818E-01
813.37	6.6778E-01
813.54	6.3961E-01
813.72	6.4843E-01
813.89	6.1956E-01
814.07	6.3817E-01
814.24	6.4044E-01
814.41	6.4738E-01
814.59	6.1073E-01
814.76	6.0431E-01
814.94	6.2300E-01
815.11	6.3175E-01
815.29	5.6693E-01
815.46	5.7744E-01
815.63	5.9071E-01
815.81	5.9403E-01
815.98	5.4603E-01
816.16	5.5184E-01
816.33	5.9368E-01
816.50	6.0923E-01
816.68	5.8852E-01
816.85	5.7364E-01
817.03	5.9478E-01
817.20	5.8172E-01
817.37	6.0261E-01
817.55	5.8269E-01
817.72	5.9670E-01
817.90	5.6563E-01
818.07	5.9163E-01
818.24	5.5668E-01
818.42	5.7536E-01
818.59	5.7808E-01
818.77	5.8096E-01
818.94	6.0945E-01
819.11	5.7252E-01
819.29	6.1682E-01
819.46	6.0999E-01
819.64	5.6747E-01
819.81	6.3108E-01
819.98	6.2124E-01
820.16	5.9029E-01
820.33	6.1616E-01
820.50	6.0957E-01
820.68	5.8373E-01
820.85	6.0709E-01
821.02	5.9306E-01
821.20	5.7190E-01
821.37	5.9707E-01
821.55	5.5458E-01
821.72	5.8250E-01
821.89	5.8873E-01
822.07	6.1090E-01
822.24	6.0724E-01
822.41	5.5474E-01
822.59	6.2709E-01
822.76	6.2483E-01
822.93	5.8283E-01
823.11	5.9442E-01
823.28	6.1000E-01
823.45	5.8867E-01
823.63	5.9148E-01
823.80	6.1347E-01
823.97	5.5139E-01
824.15	6.1788E-01
824.32	5.8955E-01
824.49	6.4269E-01
824.67	5.9831E-01
824.84	6.1688E-01
825.01	6.1758E-01
825.19	6.2027E-01
825.36	6.1811E-01
825.53	6.4263E-01
825.71	6.2802E-01
825.88	6.3201E-01
826.05	5.9275E-01
826.23	6.2374E-01
826.40	6.0095E-01
826.57	6.0393E-01
826.75	5.9307E-01
826.92	5.7485E-01
827.09	5.7731E-01
827.26	6.4051E-01
827.44	6.1055E-01
827.61	6.3843E-01
827.78	6.1669E-01
827.96	5.6820E-01
828.13	6.3202E-01
828.30	6.1406E-01
828.48	5.9874E-01
828.65	5.9080E-01
828.82	5.9449E-01
828.99	5.9496E-01
829.17	6.0106E-01
829.34	5.5002E-01
829.51	5.9568E-01
829.68	6.3105E-01
829.86	6.1847E-01
830.03	5.9879E-01
830.20	6.1372E-01
830.38	6.0211E-01
830.55	5.7363E-01
830.72	6.0826E-01
830.89	5.6573E-01
831.07	5.6731E-01
831.24	5.6743E-01
831.41	5.8192E-01
831.58	6.1089E-01
831.76	6.3702E-01
831.93	6.1444E-01
832.10	6.1341E-01
832.27	5.6485E-01
832.45	5.6495E-01
832.62	6.0324E-01
832.79	5.8167E-01
832.96	6.0969E-01
833.14	5.6361E-01
833.31	6.2854E-01
833.48	5.9974E-01
833.65	5.7825E-01
833.83	6.2768E-01
834.00	6.3568E-01
834.17	5.9889E-01
834.34	6.1889E-01
834.51	6.0119E-01
834.69	5.8498E-01
834.86	6.3054E-01
835.03	5.9764E-01
835.20	6.2637E-01
835.38	6.0331E-01
835.55	6.0801E-01
835.72	5.9508E-01
835.89	6.6377E-01
836.06	5.9799E-01
836.24	5.9971E-01
836.41	5.7699E-01
836.58	6.3282E-01
836.75	6.2620E-01
836.92	6.1599E-01
837.10	5.8899E-01
837.27	6.0737E-01
837.44	5.8718E-01
837.61	6.4168E-01
837.78	5.9635E-01
837.96	6.1946E-01
838.13	6.0422E-01
838.30	6.3078E-01
838.47	6.1681E-01
838.64	6.0940E-01
838.82	6.0495E-01
838.99	6.5575E-01
839.16	6.0103E-01
839.33	6.0454E-01
839.50	6.4767E-01
839.67	6.2211E-01
839.85	5.6953E-01
840.02	6.1463E-01
840.19	5.9256E-01
840.36	6.3643E-01
840.53	5.7802E-01
840.70	5.7338E-01
840.88	6.2697E-01
841.05	6.4297E-01
841.22	6.1617E-01
841.39	6.1433E-01
841.56	6.2176E-01
841.73	6.0867E-01
841.91	6.3380E-01
842.08	6.3012E-01
842.25	6.1927E-01
842.42	6.3016E-01
842.59	6.1452E-01
842.76	6.6316E-01
842.93	6.2097E-01
843.11	6.3484E-01
843.28	6.2091E-01
843.45	6.2400E-01
843.62	5.8975E-01
843.79	5.9978E-01
843.96	6.5242E-01
844.13	6.2545E-01
844.30	6.2362E-01
844.48	6.5239E-01
844.65	5.9076E-01
844.82	5.6687E-01
844.99	6.0385E-01
845.16	6.0039E-01
845.33	6.1073E-01
845.50	6.0726E-01
845.67	5.7229E-01
845.84	6.0825E-01
846.02	5.8896E-01
846.19	6.1072E-01
846.36	6.1235E-01
846.53	6.5267E-01
846.70	6.1627E-01
846.87	5.6251E-01
847.04	6.1913E-01
847.21	6.1481E-01
847.38	6.1307E-01
847.55	6.1410E-01
847.73	5.7934E-01
847.90	5.9543E-01
848.07	5.6555E-01
848.24	5.7954E-01
848.41	5.6480E-01
848.58	6.6126E-01
848.75	5.8427E-01
848.92	6.3875E-01
849.09	5.9624E-01
849.26	5.7850E-01
849.43	5.6112E-01
849.60	5.8408E-01
849.77	6.1112E-01
849.94	4.9334E-01
850.12	6.1076E-01
850.29	5.8558E-01
850.46	5.7336E-01
850.63	5.6155E-01
850.80	5.9017E-01
850.97	5.8992E-01
851.14	5.4382E-01
851.31	5.1124E-01
851.48	5.5088E-01
851.65	5.6518E-01
851.82	5.9465E-01
851.99	5.8421E-01
852.16	5.0600E-01
852.33	5.6688E-01
852.50	5.4300E-01
852.67	5.5001E-01
852.84	5.6284E-01
853.01	5.3993E-01
853.18	5.6480E-01
853.35	5.2088E-01
853.52	5.9532E-01
853.69	5.4370E-01
853.86	5.0966E-01
854.03	5.0357E-01
854.21	5.5742E-01
854.38	5.4194E-01
854.55	5.6348E-01
854.72	5.7177E-01
854.89	5.1490E-01
855.06	4.7611E-01
855.23	5.3971E-01
855.40	5.8357E-01
855.57	5.0689E-01
855.74	5.2743E-01
855.91	5.3995E-01
856.08	5.0478E-01
856.25	5.4133E-01
856.42	5.3100E-01
856.59	5.2647E-01
856.76	5.4270E-01
856.93	5.3849E-01
857.10	5.3611E-01
857.27	5.8948E-01
857.44	5.5695E-01
857.61	5.5242E-01
857.77	5.1417E-01
857.94	5.1882E-01
858.11	5.1403E-01
858.28	5.8232E-01
858.45	5.1218E-01
858.62	5.5044E-01
858.79	5.2170E-01
858.96	5.2706E-01
859.13	5.3040E-01
859.30	5.5955E-01
859.47	5.1810E-01
859.64	4.7364E-01
859.81	5.5797E-01
859.98	5.5982E-01
860.15	5.2939E-01
860.32	5.0874E-01
860.49	6.0330E-01
860.66	5.4195E-01
860.83	5.5516E-01
861.00	5.3929E-01
861.17	5.5004E-01
861.34	5.5305E-01
861.51	4.7045E-01
861.68	5.5106E-01
861.84	5.3469E-01
862.01	4.9800E-01
862.18	5.1393E-01
862.35	5.4253E-01
862.52	5.4017E-01
862.69	5.1745E-01
862.86	5.3379E-01
863.03	5.4967E-01
863.20	5.3363E-01
863.37	5.4129E-01
863.54	4.9694E-01
863.71	5.0024E-01
863.88	5.2139E-01
864.05	5.1329E-01
864.21	5.4038E-01
864.38	4.8302E-01
864.55	4.6950E-01
864.72	5.5226E-01
864.89	5.0626E-01
865.06	5.4463E-01
865.23	4.9960E-01
865.40	4.7183E-01
865.57	5.4789E-01
865.74	5.1794E-01
865.90	5.2598E-01
866.07	5.2118E-01
866.24	4.6603E-01
866.41	4.5640E-01
866.58	4.7807E-01
866.75	4.8733E-01
866.92	4.9237E-01
867.09	4.9406E-01
867.26	4.9766E-01
867.42	4.5701E-01
867.59	4.3069E-01
867.76	5.0873E-01
867.93	4.7432E-01
868.10	4.9255E-01
868.27	4.1994E-01
868.44	4.9636E-01
868.60	5.0961E-01
868.77	5.0158E-01
868.94	4.7930E-01
869.11	4.7579E-01
869.28	5.1332E-01
869.45	4.3112E-01
869.62	4.9818E-01
869.78	4.7807E-01
869.95	4.4172E-01
870.12	4.6519E-01
870.29	4.8914E-01
870.46	4.9854E-01
870.63	4.6122E-01
870.80	4.2630E-01
870.96	4.6169E-01
871.13	4.5358E-01
871.30	4.9046E-01
871.47	4.9643E-01
871.64	4.9215E-01
871.81	3.9481E-01
871.97	5.1421E-01
872.14	4.2674E-01
872.31	4.1042E-01
872.48	4.4774E-01
872.65	4.9419E-01
872.81	4.5682E-01
872.98	5.0927E-01
873.15	4.9046E-01
873.32	4.8947E-01
873.49	4.5564E-01
873.66	4.8441E-01
873.82	4.6016E-01
873.99	4.3568E-01
874.16	4.7419E-01
874.33	4.4859E-01
874.50	4.8578E-01
874.66	4.5622E-01
874.83	4.6535E-01
875.00	4.5402E-01
875.17	3.8888E-01
875.34	4.8236E-01
875.50	4.4249E-01
875.67	4.2679E-01
875.84	4.4054E-01
876.01	4.1958E-01
876.17	3.9844E-01
876.34	3.9821E-01
876.51	4.8051E-01
876.68	4.5865E-01
876.85	4.4625E-01
877.01	4.6834E-01
877.18	4.1802E-01
877.35	4.3774E-01
877.52	4.3481E-01
877.68	4.5566E-01
877.85	4.1907E-01
878.02	4.3975E-01
878.19	4.2344E-01
878.35	4.4342E-01
878.52	4.3970E-01
878.69	4.4949E-01
878.86	4.0204E-01
879.02	4.2235E-01
879.19	3.8392E-01
879.36	4.0876E-01
879.53	3.5778E-01
879.69	4.1049E-01
879.86	4.6139E-01
880.03	4.5011E-01
880.20	4.0289E-01
880.36	4.6000E-01
880.53	3.9281E-01
880.70	4.6669E-01
880.87	4.1478E-01
881.03	4.1194E-01
881.20	3.5609E-01
881.37	4.0454E-01
881.54	4.2121E-01
881.70	4.5229E-01
881.87	3.9392E-01
882.04	3.9435E-01
882.20	4.0154E-01
882.37	3.5356E-01
882.54	4.2338E-01
882.71	4.1909E-01
882.87	4.5604E-01
883.04	3.9836E-01
883.21	3.9333E-01
883.37	3.7769E-01
883.54	4.0030E-01
883.71	3.8507E-01
883.87	3.5812E-01
884.04	4.3662E-01
884.21	3.8466E-01
884.38	3.6438E-01
884.54	4.4671E-01
884.71	4.4687E-01
884.88	3.8666E-01
885.04	4.0601E-01
885.21	3.7262E-01
885.38	3.7395E-01
885.54	4.6432E-01
885.71	3.8066E-01
885.88	4.0831E-01
886.04	3.9286E-01
886.21	3.9381E-01
886.38	3.6996E-01
886.54	3.8097E-01
886.71	3.4953E-01
886.88	4.2545E-01
887.04	3.2923E-01
887.21	3.6401E-01
887.38	4.1072E-01
887.54	3.2015E-01
887.71	3.5889E-01
887.88	3.5987E-01
888.04	4.0596E-01
888.21	3.9170E-01
888.38	3.1306E-01
888.54	4.2515E-01
888.71	3.6136E-01
888.87	3.1455E-01
889.04	3.1455E-01
>>>>>End Processed Spectral Data<<<<<
