SpectraSuite Data File
++++++++++++++++++++++++++++++++++++
Date: Wed Jul 25 11:05:57 HST 2007
User: guest
Dark Spectrum Present: Yes
Reference Spectrum Present: No
Number of Sampled Component Spectra: 1
Spectrometers: USB4E01242
Integration Time (usec): 20000 (USB4E01242)
Spectra Averaged: 1 (USB4E01242)
Boxcar Smoothing: 10 (USB4E01242)
Correct for Electrical Dark: No (USB4E01242)
Strobe/Lamp Enabled: No (USB4E01242)
Correct for Detector Non-linearity: No (USB4E01242)
Correct for Stray Light: No (USB4E01242)
Number of Pixels in Processed Spectrum: 3648
>>>>>Begin Processed Spectral Data<<<<<
177.33	0.0000E00
177.55	0.0000E00
177.77	0.0000E00
177.99	0.0000E00
178.21	0.0000E00
178.43	-0.0000E00
178.64	-0.0000E00
178.86	-0.0000E00
179.08	-0.0000E00
179.30	-0.0000E00
179.52	-0.0000E00
179.74	-0.0000E00
179.96	-0.0000E00
180.18	-0.0000E00
180.39	-0.0000E00
180.61	-0.0000E00
180.83	-0.0000E00
181.05	-0.0000E00
181.27	-0.0000E00
181.49	-0.0000E00
181.71	-0.0000E00
181.92	-0.0000E00
182.14	-0.0000E00
182.36	-0.0000E00
182.58	-0.0000E00
182.80	-0.0000E00
183.02	0.0000E00
183.23	-0.0000E00
183.45	-0.0000E00
183.67	-0.0000E00
183.89	-0.0000E00
184.11	0.0000E00
184.33	-0.0000E00
184.55	-0.0000E00
184.76	-0.0000E00
184.98	-0.0000E00
185.20	-0.0000E00
185.42	-0.0000E00
185.64	-0.0000E00
185.86	0.0000E00
186.07	-0.0000E00
186.29	-0.0000E00
186.51	-0.0000E00
186.73	-0.0000E00
186.95	-0.0000E00
187.17	-0.0000E00
187.38	-0.0000E00
187.60	-0.0000E00
187.82	-0.0000E00
188.04	-0.0000E00
188.26	-0.0000E00
188.47	-0.0000E00
188.69	-0.0000E00
188.91	-0.0000E00
189.13	-0.0000E00
189.35	-0.0000E00
189.57	-0.0000E00
189.78	-0.0000E00
190.00	-0.0000E00
190.22	-0.0000E00
190.44	-0.0000E00
190.66	-0.0000E00
190.87	-0.0000E00
191.09	-0.0000E00
191.31	-0.0000E00
191.53	-0.0000E00
191.75	-0.0000E00
191.97	-0.0000E00
192.18	-0.0000E00
192.40	-0.0000E00
192.62	-0.0000E00
192.84	-0.0000E00
193.06	-0.0000E00
193.27	-0.0000E00
193.49	-0.0000E00
193.71	-0.0000E00
193.93	-0.0000E00
194.15	-0.0000E00
194.36	-0.0000E00
194.58	-0.0000E00
194.80	-0.0000E00
195.02	-0.0000E00
195.23	-0.0000E00
195.45	-0.0000E00
195.67	-0.0000E00
195.89	-0.0000E00
196.11	-0.0000E00
196.32	-0.0000E00
196.54	-0.0000E00
196.76	-0.0000E00
196.98	-0.0000E00
197.20	-0.0000E00
197.41	-0.0000E00
197.63	-0.0000E00
197.85	-0.0000E00
198.07	-0.0000E00
198.28	-0.0000E00
198.50	-0.0000E00
198.72	-0.0000E00
198.94	-0.0000E00
199.16	-0.0000E00
199.37	-0.0000E00
199.59	-0.0000E00
199.81	-0.0000E00
200.03	-0.0000E00
200.24	-0.0000E00
200.46	-0.0000E00
200.68	-0.0000E00
200.90	-0.0000E00
201.11	-0.0000E00
201.33	-0.0000E00
201.55	-0.0000E00
201.77	-0.0000E00
201.98	-0.0000E00
202.20	-0.0000E00
202.42	-0.0000E00
202.64	-0.0000E00
202.86	-0.0000E00
203.07	-0.0000E00
203.29	-0.0000E00
203.51	-0.0000E00
203.73	-0.0000E00
203.94	-0.0000E00
204.16	-0.0000E00
204.38	0.0000E00
204.60	-0.0000E00
204.81	-0.0000E00
205.03	-0.0000E00
205.25	-0.0000E00
205.46	0.0000E00
205.68	-0.0000E00
205.90	-0.0000E00
206.12	-0.0000E00
206.33	-0.0000E00
206.55	0.0000E00
206.77	-0.0000E00
206.99	-0.0000E00
207.20	-0.0000E00
207.42	-0.0000E00
207.64	-0.0000E00
207.86	-0.0000E00
208.07	-0.0000E00
208.29	-0.0000E00
208.51	-0.0000E00
208.72	-0.0000E00
208.94	-0.0000E00
209.16	-0.0000E00
209.38	-0.0000E00
209.59	-0.0000E00
209.81	-0.0000E00
210.03	-0.0000E00
210.25	-0.0000E00
210.46	-0.0000E00
210.68	-0.0000E00
210.90	-0.0000E00
211.11	-0.0000E00
211.33	-0.0000E00
211.55	-0.0000E00
211.77	-0.0000E00
211.98	0.0000E00
212.20	-0.0000E00
212.42	-0.0000E00
212.63	-0.0000E00
212.85	-0.0000E00
213.07	-0.0000E00
213.29	-0.0000E00
213.50	-0.0000E00
213.72	-0.0000E00
213.94	-0.0000E00
214.15	-0.0000E00
214.37	-0.0000E00
214.59	-0.0000E00
214.80	-0.0000E00
215.02	-0.0000E00
215.24	-0.0000E00
215.45	-0.0000E00
215.67	-0.0000E00
215.89	-0.0000E00
216.11	-0.0000E00
216.32	-0.0000E00
216.54	-0.0000E00
216.76	-0.0000E00
216.97	-0.0000E00
217.19	-0.0000E00
217.41	-0.0000E00
217.62	-0.0000E00
217.84	-0.0000E00
218.06	-0.0000E00
218.27	-0.0000E00
218.49	0.0000E00
218.71	-0.0000E00
218.92	-0.0000E00
219.14	-0.0000E00
219.36	-0.0000E00
219.57	-0.0000E00
219.79	-0.0000E00
220.01	-0.0000E00
220.22	-0.0000E00
220.44	-0.0000E00
220.66	-0.0000E00
220.88	-0.0000E00
221.09	-0.0000E00
221.31	-0.0000E00
221.53	-0.0000E00
221.74	-0.0000E00
221.96	-0.0000E00
222.17	-0.0000E00
222.39	-0.0000E00
222.61	-0.0000E00
222.82	0.0000E00
223.04	0.0000E00
223.26	-0.0000E00
223.47	-0.0000E00
223.69	-0.0000E00
223.91	-0.0000E00
224.12	0.0000E00
224.34	-0.0000E00
224.56	-0.0000E00
224.77	-0.0000E00
224.99	-0.0000E00
225.21	-0.0000E00
225.42	-0.0000E00
225.64	-0.0000E00
225.86	-0.0000E00
226.07	-0.0000E00
226.29	-0.0000E00
226.50	-0.0000E00
226.72	-0.0000E00
226.94	-0.0000E00
227.15	-0.0000E00
227.37	-0.0000E00
227.59	-0.0000E00
227.80	-0.0000E00
228.02	-0.0000E00
228.24	-0.0000E00
228.45	-0.0000E00
228.67	-0.0000E00
228.88	-0.0000E00
229.10	-0.0000E00
229.32	-0.0000E00
229.53	0.0000E00
229.75	-0.0000E00
229.97	-0.0000E00
230.18	-0.0000E00
230.40	-0.0000E00
230.61	-0.0000E00
230.83	-0.0000E00
231.05	-0.0000E00
231.26	0.0000E00
231.48	-0.0000E00
231.70	-0.0000E00
231.91	-0.0000E00
232.13	-0.0000E00
232.34	-0.0000E00
232.56	-0.0000E00
232.78	-0.0000E00
232.99	-0.0000E00
233.21	-0.0000E00
233.42	-0.0000E00
233.64	-0.0000E00
233.86	-0.0000E00
234.07	-0.0000E00
234.29	-0.0000E00
234.50	-0.0000E00
234.72	-0.0000E00
234.94	-0.0000E00
235.15	-0.0000E00
235.37	-0.0000E00
235.58	-0.0000E00
235.80	-0.0000E00
236.02	0.0000E00
236.23	-0.0000E00
236.45	-0.0000E00
236.66	-0.0000E00
236.88	-0.0000E00
237.10	-0.0000E00
237.31	-0.0000E00
237.53	-0.0000E00
237.74	-0.0000E00
237.96	-0.0000E00
238.17	-0.0000E00
238.39	-0.0000E00
238.61	-0.0000E00
238.82	-0.0000E00
239.04	-0.0000E00
239.25	-0.0000E00
239.47	-0.0000E00
239.69	-0.0000E00
239.90	-0.0000E00
240.12	-0.0000E00
240.33	-0.0000E00
240.55	-0.0000E00
240.76	0.0000E00
240.98	-0.0000E00
241.20	-0.0000E00
241.41	-0.0000E00
241.63	-0.0000E00
241.84	-0.0000E00
242.06	-0.0000E00
242.27	-0.0000E00
242.49	-0.0000E00
242.70	-0.0000E00
242.92	-0.0000E00
243.14	0.0000E00
243.35	-0.0000E00
243.57	-0.0000E00
243.78	-0.0000E00
244.00	-0.0000E00
244.21	-0.0000E00
244.43	-0.0000E00
244.64	-0.0000E00
244.86	-0.0000E00
245.08	-0.0000E00
245.29	-0.0000E00
245.51	-0.0000E00
245.72	-0.0000E00
245.94	-0.0000E00
246.15	-0.0000E00
246.37	-0.0000E00
246.58	-0.0000E00
246.80	-0.0000E00
247.01	-0.0000E00
247.23	-0.0000E00
247.45	-0.0000E00
247.66	-0.0000E00
247.88	-0.0000E00
248.09	-0.0000E00
248.31	-0.0000E00
248.52	-0.0000E00
248.74	-0.0000E00
248.95	0.0000E00
249.17	-0.0000E00
249.38	-0.0000E00
249.60	-0.0000E00
249.81	0.0000E00
250.03	-0.0000E00
250.24	-0.0000E00
250.46	0.0000E00
250.67	-0.0000E00
250.89	-0.0000E00
251.10	-0.0000E00
251.32	-0.0000E00
251.53	-0.0000E00
251.75	-0.0000E00
251.97	-0.0000E00
252.18	-0.0000E00
252.40	-0.0000E00
252.61	-0.0000E00
252.83	-0.0000E00
253.04	-0.0000E00
253.26	-0.0000E00
253.47	-0.0000E00
253.69	-0.0000E00
253.90	-0.0000E00
254.12	-0.0000E00
254.33	-0.0000E00
254.55	-0.0000E00
254.76	-0.0000E00
254.98	0.0000E00
255.19	-0.0000E00
255.41	-0.0000E00
255.62	-0.0000E00
255.84	-0.0000E00
256.05	-0.0000E00
256.27	-0.0000E00
256.48	-0.0000E00
256.70	-0.0000E00
256.91	-0.0000E00
257.13	-0.0000E00
257.34	-0.0000E00
257.55	-0.0000E00
257.77	-0.0000E00
257.98	-0.0000E00
258.20	-0.0000E00
258.41	-0.0000E00
258.63	-0.0000E00
258.84	-0.0000E00
259.06	-0.0000E00
259.27	-0.0000E00
259.49	0.0000E00
259.70	0.0000E00
259.92	-0.0000E00
260.13	-0.0000E00
260.35	-0.0000E00
260.56	-0.0000E00
260.78	-0.0000E00
260.99	-0.0000E00
261.21	-0.0000E00
261.42	-0.0000E00
261.63	-0.0000E00
261.85	-0.0000E00
262.06	-0.0000E00
262.28	-0.0000E00
262.49	-0.0000E00
262.71	-0.0000E00
262.92	-0.0000E00
263.14	-0.0000E00
263.35	-0.0000E00
263.57	-0.0000E00
263.78	-0.0000E00
264.00	-0.0000E00
264.21	-0.0000E00
264.42	-0.0000E00
264.64	-0.0000E00
264.85	-0.0000E00
265.07	-0.0000E00
265.28	-0.0000E00
265.50	-0.0000E00
265.71	-0.0000E00
265.93	-0.0000E00
266.14	-0.0000E00
266.35	0.0000E00
266.57	-0.0000E00
266.78	-0.0000E00
267.00	-0.0000E00
267.21	-0.0000E00
267.43	-0.0000E00
267.64	-0.0000E00
267.85	-0.0000E00
268.07	-0.0000E00
268.28	-0.0000E00
268.50	-0.0000E00
268.71	-0.0000E00
268.93	-0.0000E00
269.14	-0.0000E00
269.35	-0.0000E00
269.57	-0.0000E00
269.78	-0.0000E00
270.00	-0.0000E00
270.21	0.0000E00
270.43	-0.0000E00
270.64	-0.0000E00
270.85	-0.0000E00
271.07	-0.0000E00
271.28	-0.0000E00
271.50	-0.0000E00
271.71	-0.0000E00
271.92	-0.0000E00
272.14	-0.0000E00
272.35	-0.0000E00
272.57	-0.0000E00
272.78	-0.0000E00
272.99	-0.0000E00
273.21	-0.0000E00
273.42	-0.0000E00
273.64	-0.0000E00
273.85	-0.0000E00
274.07	-0.0000E00
274.28	-0.0000E00
274.49	-0.0000E00
274.71	-0.0000E00
274.92	-0.0000E00
275.13	-0.0000E00
275.35	-0.0000E00
275.56	-0.0000E00
275.78	-0.0000E00
275.99	-0.0000E00
276.20	-0.0000E00
276.42	-0.0000E00
276.63	-0.0000E00
276.85	-0.0000E00
277.06	-0.0000E00
277.27	-0.0000E00
277.49	-0.0000E00
277.70	-0.0000E00
277.92	-0.0000E00
278.13	-0.0000E00
278.34	0.0000E00
278.56	-0.0000E00
278.77	-0.0000E00
278.98	-0.0000E00
279.20	-0.0000E00
279.41	-0.0000E00
279.63	-0.0000E00
279.84	-0.0000E00
280.05	-0.0000E00
280.27	-0.0000E00
280.48	-0.0000E00
280.69	-0.0000E00
280.91	-0.0000E00
281.12	-0.0000E00
281.33	-0.0000E00
281.55	-0.0000E00
281.76	-0.0000E00
281.98	-0.0000E00
282.19	-0.0000E00
282.40	-0.0000E00
282.62	-0.0000E00
282.83	-0.0000E00
283.04	-0.0000E00
283.26	0.0000E00
283.47	-0.0000E00
283.68	-0.0000E00
283.90	-0.0000E00
284.11	-0.0000E00
284.32	-0.0000E00
284.54	-0.0000E00
284.75	-0.0000E00
284.96	-0.0000E00
285.18	-0.0000E00
285.39	-0.0000E00
285.60	-0.0000E00
285.82	-0.0000E00
286.03	-0.0000E00
286.24	-0.0000E00
286.46	0.0000E00
286.67	-0.0000E00
286.88	-0.0000E00
287.10	-0.0000E00
287.31	-0.0000E00
287.52	-0.0000E00
287.74	-0.0000E00
287.95	-0.0000E00
288.16	-0.0000E00
288.38	-0.0000E00
288.59	-0.0000E00
288.80	-0.0000E00
289.02	-0.0000E00
289.23	-0.0000E00
289.44	-0.0000E00
289.66	-0.0000E00
289.87	-0.0000E00
290.08	-0.0000E00
290.30	-0.0000E00
290.51	-0.0000E00
290.72	-0.0000E00
290.94	-0.0000E00
291.15	-0.0000E00
291.36	0.0000E00
291.57	-0.0000E00
291.79	-0.0000E00
292.00	-0.0000E00
292.21	-0.0000E00
292.43	-0.0000E00
292.64	-0.0000E00
292.85	-0.0000E00
293.07	-0.0000E00
293.28	-0.0000E00
293.49	-0.0000E00
293.70	0.0000E00
293.92	-0.0000E00
294.13	-0.0000E00
294.34	0.0000E00
294.56	-0.0000E00
294.77	-0.0000E00
294.98	-0.0000E00
295.20	-0.0000E00
295.41	-0.0000E00
295.62	-0.0000E00
295.83	-0.0000E00
296.05	0.0000E00
296.26	-0.0000E00
296.47	0.0000E00
296.69	-0.0000E00
296.90	-0.0000E00
297.11	-0.0000E00
297.32	-0.0000E00
297.54	-0.0000E00
297.75	-0.0000E00
297.96	-0.0000E00
298.17	-0.0000E00
298.39	-0.0000E00
298.60	-0.0000E00
298.81	-0.0000E00
299.03	-0.0000E00
299.24	-0.0000E00
299.45	-0.0000E00
299.66	-0.0000E00
299.88	-0.0000E00
300.09	-6.9431E-04
300.30	-1.0476E-03
300.51	-1.3772E-04
300.73	-8.3215E-04
300.94	-5.9091E-04
301.15	-2.5659E-04
301.36	-1.1582E-03
301.58	-7.5746E-04
301.79	5.1056E-04
302.00	-6.2306E-04
302.21	-7.0587E-04
302.43	2.9226E-05
302.64	-8.7025E-04
302.85	7.7650E-06
303.06	-8.9929E-04
303.28	-9.8280E-05
303.49	-7.8132E-04
303.70	4.4989E-04
303.91	-4.5473E-04
304.13	-8.1470E-04
304.34	-2.8651E-04
304.55	5.3765E-04
304.76	-1.0346E-03
304.98	-4.9206E-04
305.19	3.4216E-04
305.40	-7.9119E-04
305.61	1.1585E-04
305.82	-5.0442E-04
306.04	2.6194E-04
306.25	-7.9218E-04
306.46	4.4167E-04
306.67	-4.6141E-04
306.89	-3.8636E-04
307.10	3.2604E-04
307.31	2.9421E-04
307.52	-2.5585E-06
307.74	8.3868E-04
307.95	7.8277E-04
308.16	-6.7627E-04
308.37	4.2364E-04
308.58	1.7250E-04
308.80	8.7945E-04
309.01	6.6821E-04
309.22	-4.1500E-04
309.43	3.1577E-05
309.64	8.0117E-04
309.86	1.2423E-03
310.07	4.9913E-04
310.28	9.0518E-04
310.49	1.1361E-03
310.70	3.0564E-04
310.92	1.1161E-03
311.13	6.0332E-04
311.34	8.8509E-04
311.55	1.0080E-03
311.76	7.5404E-04
311.98	1.3692E-03
312.19	9.7193E-04
312.40	3.5090E-04
312.61	6.0947E-04
312.82	9.7550E-04
313.04	2.5090E-04
313.25	1.1107E-03
313.46	5.3198E-04
313.67	5.9511E-04
313.88	6.8403E-04
314.10	5.1722E-04
314.31	5.3493E-04
314.52	5.5575E-04
314.73	6.9207E-04
314.94	9.5095E-04
315.16	1.4323E-03
315.37	1.6674E-03
315.58	8.9187E-04
315.79	1.3273E-03
316.00	1.4776E-03
316.21	1.6196E-03
316.43	6.9339E-04
316.64	1.0500E-03
316.85	7.8332E-04
317.06	1.4065E-03
317.27	1.6995E-03
317.48	1.1905E-03
317.70	1.3252E-03
317.91	1.3523E-03
318.12	1.5737E-03
318.33	1.1261E-03
318.54	1.3265E-03
318.75	1.7992E-03
318.97	1.8286E-03
319.18	1.6164E-03
319.39	1.5086E-03
319.60	1.4629E-03
319.81	1.8209E-03
320.02	1.5151E-03
320.24	1.4359E-03
320.45	1.5571E-03
320.66	1.0736E-03
320.87	1.4586E-03
321.08	1.8164E-03
321.29	1.6396E-03
321.50	1.2540E-03
321.72	1.0510E-03
321.93	1.7264E-03
322.14	1.5225E-03
322.35	1.6193E-03
322.56	1.9444E-03
322.77	2.2640E-03
322.98	1.6876E-03
323.20	2.1263E-03
323.41	1.3959E-03
323.62	1.3356E-03
323.83	1.6471E-03
324.04	1.2993E-03
324.25	1.2165E-03
324.46	1.6979E-03
324.67	1.6233E-03
324.89	1.4263E-03
325.10	1.4443E-03
325.31	2.0698E-03
325.52	2.1213E-03
325.73	1.6250E-03
325.94	1.8518E-03
326.15	1.2204E-03
326.36	2.1928E-03
326.58	2.9246E-03
326.79	2.5131E-03
327.00	1.0260E-03
327.21	2.2264E-03
327.42	2.2145E-03
327.63	2.3035E-03
327.84	2.3330E-03
328.05	2.7075E-03
328.26	1.8398E-03
328.48	2.4352E-03
328.69	3.4637E-03
328.90	2.5323E-03
329.11	2.6051E-03
329.32	2.6772E-03
329.53	2.0438E-03
329.74	2.6393E-03
329.95	2.7479E-03
330.16	2.5114E-03
330.37	2.4886E-03
330.59	3.0467E-03
330.80	3.2084E-03
331.01	3.1801E-03
331.22	3.1482E-03
331.43	2.6295E-03
331.64	2.1713E-03
331.85	3.2331E-03
332.06	3.0593E-03
332.27	2.4813E-03
332.48	3.4386E-03
332.69	2.6755E-03
332.91	3.0730E-03
333.12	2.6616E-03
333.33	3.9967E-03
333.54	2.4118E-03
333.75	1.8187E-03
333.96	2.4282E-03
334.17	1.9385E-03
334.38	2.5557E-03
334.59	3.6078E-03
334.80	2.5548E-03
335.01	2.5789E-03
335.22	2.3559E-03
335.43	2.5699E-03
335.64	2.7620E-03
335.86	3.4437E-03
336.07	2.8159E-03
336.28	1.8140E-03
336.49	3.7213E-03
336.70	2.5041E-03
336.91	2.7901E-03
337.12	2.3999E-03
337.33	3.0057E-03
337.54	2.5728E-03
337.75	2.4642E-03
337.96	3.1595E-03
338.17	3.1104E-03
338.38	2.5837E-03
338.59	3.1825E-03
338.80	1.9305E-03
339.01	3.5778E-03
339.22	3.3976E-03
339.43	3.4148E-03
339.65	3.1685E-03
339.86	2.5453E-03
340.07	2.6313E-03
340.28	3.2361E-03
340.49	2.5664E-03
340.70	3.0087E-03
340.91	2.4415E-03
341.12	2.1839E-03
341.33	3.0389E-03
341.54	3.1654E-03
341.75	2.4519E-03
341.96	2.6847E-03
342.17	3.1081E-03
342.38	2.3405E-03
342.59	2.6126E-03
342.80	2.5425E-03
343.01	3.0778E-03
343.22	2.9292E-03
343.43	2.5079E-03
343.64	2.5893E-03
343.85	2.6607E-03
344.06	2.3790E-03
344.27	3.1488E-03
344.48	4.0246E-03
344.69	3.0839E-03
344.90	3.1777E-03
345.11	3.2576E-03
345.32	3.0009E-03
345.53	2.1043E-03
345.74	3.5113E-03
345.95	2.4216E-03
346.16	3.0648E-03
346.37	3.1926E-03
346.58	3.2972E-03
346.79	2.7507E-03
347.00	3.8833E-03
347.21	4.0052E-03
347.42	3.0134E-03
347.63	2.3705E-03
347.84	3.3497E-03
348.05	3.7607E-03
348.26	3.0753E-03
348.47	3.4867E-03
348.68	3.1934E-03
348.89	2.1225E-03
349.10	3.1489E-03
349.31	3.9932E-03
349.52	2.7352E-03
349.73	3.2139E-03
349.94	3.2832E-03
350.15	2.6020E-03
350.36	3.7630E-03
350.57	3.6119E-03
350.78	3.8171E-03
350.99	3.7583E-03
351.20	3.2923E-03
351.41	3.8612E-03
351.62	3.0848E-03
351.83	3.1084E-03
352.04	3.1520E-03
352.25	3.4145E-03
352.46	3.0472E-03
352.67	2.8700E-03
352.88	3.7333E-03
353.09	2.0005E-03
353.30	2.8320E-03
353.51	3.2414E-03
353.72	4.0842E-03
353.93	2.9198E-03
354.14	2.6892E-03
354.35	3.8386E-03
354.56	3.2542E-03
354.77	4.4084E-03
354.98	2.7324E-03
355.19	3.2911E-03
355.39	3.1794E-03
355.60	3.0529E-03
355.81	3.4683E-03
356.02	4.0432E-03
356.23	2.6242E-03
356.44	2.2665E-03
356.65	3.9602E-03
356.86	3.2548E-03
357.07	3.0263E-03
357.28	3.8307E-03
357.49	3.5487E-03
357.70	3.9590E-03
357.91	2.7492E-03
358.12	2.5914E-03
358.33	3.4486E-03
358.54	3.8534E-03
358.75	3.2809E-03
358.96	3.6797E-03
359.16	2.2731E-03
359.37	4.0609E-03
359.58	3.5006E-03
359.79	2.9523E-03
360.00	3.1936E-03
360.21	3.4849E-03
360.42	2.9213E-03
360.63	4.5457E-03
360.84	4.3746E-03
361.05	2.5464E-03
361.26	3.1755E-03
361.47	4.2886E-03
361.68	3.3925E-03
361.88	3.6302E-03
362.09	3.2204E-03
362.30	3.9923E-03
362.51	3.2220E-03
362.72	4.1684E-03
362.93	3.5918E-03
363.14	3.8562E-03
363.35	3.4821E-03
363.56	3.1725E-03
363.77	4.0423E-03
363.98	3.9521E-03
364.18	4.7541E-03
364.39	4.3951E-03
364.60	4.0415E-03
364.81	4.3261E-03
365.02	4.2009E-03
365.23	4.4668E-03
365.44	4.3489E-03
365.65	4.0029E-03
365.86	3.2345E-03
366.07	4.5817E-03
366.27	4.2598E-03
366.48	4.5802E-03
366.69	4.1962E-03
366.90	4.3821E-03
367.11	4.2567E-03
367.32	4.3261E-03
367.53	4.1873E-03
367.74	3.6242E-03
367.95	3.6288E-03
368.15	4.2332E-03
368.36	4.3485E-03
368.57	3.2131E-03
368.78	4.7008E-03
368.99	4.0124E-03
369.20	3.6818E-03
369.41	4.8863E-03
369.62	4.1707E-03
369.82	5.0566E-03
370.03	3.9614E-03
370.24	4.8306E-03
370.45	3.9438E-03
370.66	3.3855E-03
370.87	3.6254E-03
371.08	3.6846E-03
371.28	3.7982E-03
371.49	3.8823E-03
371.70	3.6990E-03
371.91	3.6296E-03
372.12	3.3002E-03
372.33	3.5287E-03
372.54	3.8249E-03
372.74	3.8768E-03
372.95	2.8119E-03
373.16	4.1668E-03
373.37	4.1156E-03
373.58	2.9967E-03
373.79	4.0223E-03
374.00	3.3423E-03
374.20	4.4082E-03
374.41	4.2643E-03
374.62	3.4832E-03
374.83	3.5417E-03
375.04	3.8960E-03
375.25	4.0212E-03
375.45	2.7056E-03
375.66	4.1900E-03
375.87	3.9158E-03
376.08	4.7028E-03
376.29	4.5462E-03
376.50	4.2191E-03
376.70	3.7209E-03
376.91	4.2577E-03
377.12	4.2492E-03
377.33	3.2615E-03
377.54	3.5553E-03
377.75	4.5174E-03
377.95	3.9123E-03
378.16	4.0050E-03
378.37	3.4185E-03
378.58	4.3383E-03
378.79	3.1948E-03
379.00	4.4571E-03
379.20	3.5962E-03
379.41	4.1500E-03
379.62	4.2922E-03
379.83	3.7622E-03
380.04	3.8837E-03
380.24	3.8495E-03
380.45	2.7466E-03
380.66	3.2631E-03
380.87	3.6891E-03
381.08	3.8449E-03
381.28	3.0127E-03
381.49	3.6525E-03
381.70	3.0353E-03
381.91	3.2743E-03
382.12	3.6873E-03
382.32	3.0534E-03
382.53	3.7425E-03
382.74	2.8438E-03
382.95	3.2610E-03
383.16	3.5366E-03
383.36	2.3082E-03
383.57	3.3753E-03
383.78	3.6872E-03
383.99	2.8558E-03
384.20	3.1598E-03
384.40	3.2297E-03
384.61	3.9870E-03
384.82	4.1508E-03
385.03	3.7550E-03
385.23	3.8433E-03
385.44	3.6520E-03
385.65	4.2331E-03
385.86	3.3483E-03
386.07	5.0830E-03
386.27	2.9548E-03
386.48	3.6743E-03
386.69	4.2426E-03
386.90	2.5642E-03
387.10	3.3712E-03
387.31	4.2284E-03
387.52	3.4710E-03
387.73	4.0098E-03
387.94	4.4543E-03
388.14	3.3135E-03
388.35	3.8328E-03
388.56	5.3156E-03
388.77	4.4699E-03
388.97	4.6482E-03
389.18	4.9417E-03
389.39	4.2616E-03
389.60	4.6173E-03
389.80	5.2392E-03
390.01	4.8889E-03
390.22	4.7431E-03
390.43	3.7327E-03
390.63	4.1432E-03
390.84	4.1107E-03
391.05	5.1321E-03
391.26	4.3189E-03
391.46	4.1070E-03
391.67	4.0944E-03
391.88	3.1330E-03
392.09	3.2407E-03
392.29	4.4561E-03
392.50	3.5800E-03
392.71	4.0408E-03
392.92	4.3018E-03
393.12	4.1948E-03
393.33	4.6943E-03
393.54	3.8648E-03
393.74	3.3044E-03
393.95	3.6609E-03
394.16	4.7185E-03
394.37	4.0876E-03
394.57	4.0429E-03
394.78	4.5945E-03
394.99	4.3428E-03
395.19	3.9730E-03
395.40	3.8878E-03
395.61	3.7951E-03
395.82	4.6664E-03
396.02	3.9858E-03
396.23	4.6645E-03
396.44	4.8702E-03
396.65	3.9209E-03
396.85	4.9910E-03
397.06	4.6067E-03
397.27	4.6781E-03
397.47	5.1823E-03
397.68	4.7146E-03
397.89	4.2520E-03
398.09	4.0982E-03
398.30	4.5264E-03
398.51	4.0079E-03
398.72	4.5719E-03
398.92	5.2862E-03
399.13	5.2233E-03
399.34	5.9432E-03
399.54	5.9972E-03
399.75	5.6839E-03
399.96	4.7574E-03
400.16	4.9030E-03
400.37	5.6087E-03
400.58	5.5349E-03
400.78	5.9020E-03
400.99	5.1536E-03
401.20	6.2590E-03
401.41	6.0326E-03
401.61	5.1926E-03
401.82	5.8299E-03
402.03	5.2609E-03
402.23	5.2377E-03
402.44	6.0471E-03
402.65	5.5015E-03
402.85	5.6645E-03
403.06	5.5991E-03
403.27	5.6488E-03
403.47	5.7850E-03
403.68	5.2694E-03
403.89	6.0658E-03
404.09	5.5617E-03
404.30	4.8945E-03
404.51	5.8567E-03
404.71	5.8035E-03
404.92	6.2070E-03
405.13	4.6636E-03
405.33	5.1489E-03
405.54	5.1684E-03
405.75	5.5997E-03
405.95	5.4516E-03
406.16	4.3245E-03
406.37	5.5020E-03
406.57	5.4890E-03
406.78	5.9139E-03
406.99	5.6405E-03
407.19	6.0438E-03
407.40	6.2179E-03
407.60	6.0471E-03
407.81	5.9099E-03
408.02	5.1749E-03
408.22	5.2285E-03
408.43	6.1799E-03
408.64	5.7704E-03
408.84	5.6803E-03
409.05	4.6904E-03
409.26	6.1607E-03
409.46	6.0664E-03
409.67	5.6053E-03
409.87	6.0867E-03
410.08	5.6000E-03
410.29	6.5613E-03
410.49	5.1587E-03
410.70	6.1151E-03
410.91	5.7596E-03
411.11	6.4100E-03
411.32	5.9926E-03
411.52	5.1776E-03
411.73	6.3805E-03
411.94	6.1478E-03
412.14	6.5477E-03
412.35	5.8460E-03
412.56	6.5359E-03
412.76	6.4880E-03
412.97	5.6734E-03
413.17	6.3098E-03
413.38	6.8327E-03
413.59	5.8913E-03
413.79	6.1053E-03
414.00	6.4919E-03
414.20	6.8024E-03
414.41	5.6412E-03
414.62	6.6143E-03
414.82	5.9600E-03
415.03	5.3089E-03
415.23	6.4645E-03
415.44	5.6274E-03
415.65	6.3068E-03
415.85	5.5911E-03
416.06	6.5120E-03
416.26	6.2569E-03
416.47	6.3103E-03
416.68	6.7544E-03
416.88	7.0745E-03
417.09	5.1074E-03
417.29	6.2126E-03
417.50	6.5649E-03
417.71	6.3394E-03
417.91	6.0946E-03
418.12	6.0772E-03
418.32	6.6931E-03
418.53	6.6793E-03
418.73	5.7429E-03
418.94	5.8956E-03
419.15	5.7709E-03
419.35	6.6077E-03
419.56	6.1922E-03
419.76	5.2342E-03
419.97	6.8919E-03
420.17	5.9617E-03
420.38	4.9887E-03
420.59	6.4003E-03
420.79	6.7213E-03
421.00	5.7542E-03
421.20	4.9752E-03
421.41	5.7938E-03
421.61	5.5119E-03
421.82	6.0724E-03
422.02	5.7989E-03
422.23	4.5238E-03
422.44	6.5685E-03
422.64	5.4065E-03
422.85	5.7204E-03
423.05	5.8647E-03
423.26	5.9749E-03
423.46	5.8853E-03
423.67	5.4627E-03
423.87	5.7379E-03
424.08	5.5126E-03
424.29	5.6374E-03
424.49	6.4803E-03
424.70	5.1340E-03
424.90	6.2619E-03
425.11	6.4328E-03
425.31	6.2745E-03
425.52	6.5604E-03
425.72	5.8071E-03
425.93	6.1572E-03
426.13	5.8343E-03
426.34	5.8481E-03
426.54	6.0780E-03
426.75	6.0800E-03
426.95	6.2368E-03
427.16	6.3970E-03
427.36	6.1752E-03
427.57	5.5459E-03
427.78	5.6601E-03
427.98	5.6671E-03
428.19	5.9858E-03
428.39	5.4233E-03
428.60	5.4515E-03
428.80	5.5225E-03
429.01	6.2371E-03
429.21	4.7778E-03
429.42	6.3911E-03
429.62	6.2419E-03
429.83	5.6536E-03
430.03	4.9691E-03
430.24	5.9977E-03
430.44	5.0660E-03
430.65	5.7722E-03
430.85	5.9964E-03
431.06	5.3719E-03
431.26	6.0731E-03
431.47	4.9357E-03
431.67	6.7440E-03
431.88	6.0022E-03
432.08	6.2161E-03
432.29	6.3130E-03
432.49	5.6496E-03
432.70	5.6348E-03
432.90	6.6665E-03
433.11	6.3325E-03
433.31	4.9757E-03
433.52	6.0977E-03
433.72	5.6636E-03
433.93	5.9106E-03
434.13	5.8753E-03
434.34	6.8683E-03
434.54	5.5200E-03
434.74	5.9610E-03
434.95	6.1054E-03
435.15	5.8996E-03
435.36	6.1500E-03
435.56	5.5354E-03
435.77	6.2352E-03
435.97	5.5532E-03
436.18	7.3818E-03
436.38	6.5049E-03
436.59	5.8834E-03
436.79	6.7282E-03
437.00	6.6593E-03
437.20	6.0947E-03
437.41	5.8673E-03
437.61	6.5686E-03
437.81	6.3395E-03
438.02	6.1750E-03
438.22	6.5096E-03
438.43	5.7987E-03
438.63	7.1438E-03
438.84	6.2689E-03
439.04	6.2140E-03
439.25	6.4555E-03
439.45	5.8137E-03
439.66	5.8698E-03
439.86	6.0469E-03
440.06	7.1511E-03
440.27	6.0590E-03
440.47	5.5662E-03
440.68	6.6995E-03
440.88	6.3265E-03
441.09	6.8040E-03
441.29	6.8798E-03
441.49	6.6146E-03
441.70	7.3649E-03
441.90	6.5867E-03
442.11	7.0804E-03
442.31	7.4788E-03
442.52	6.8826E-03
442.72	6.3724E-03
442.92	6.1288E-03
443.13	7.0322E-03
443.33	6.0513E-03
443.54	6.6617E-03
443.74	6.7401E-03
443.95	7.1665E-03
444.15	6.7682E-03
444.35	7.2511E-03
444.56	6.5303E-03
444.76	6.1476E-03
444.97	7.9369E-03
445.17	7.1876E-03
445.37	7.9540E-03
445.58	6.4141E-03
445.78	6.8426E-03
445.99	6.1968E-03
446.19	6.2661E-03
446.39	6.4263E-03
446.60	5.9864E-03
446.80	6.1245E-03
447.01	6.8512E-03
447.21	7.4790E-03
447.41	6.1794E-03
447.62	7.1561E-03
447.82	6.5813E-03
448.03	7.0773E-03
448.23	6.9109E-03
448.43	6.9588E-03
448.64	7.3452E-03
448.84	7.1118E-03
449.05	6.6368E-03
449.25	7.2690E-03
449.45	6.6561E-03
449.66	6.9528E-03
449.86	6.8883E-03
450.07	6.3252E-03
450.27	7.0501E-03
450.47	6.5628E-03
450.68	7.0347E-03
450.88	6.4469E-03
451.08	6.8607E-03
451.29	6.8681E-03
451.49	7.2008E-03
451.70	7.0408E-03
451.90	7.4724E-03
452.10	7.2440E-03
452.31	6.2992E-03
452.51	7.1281E-03
452.71	6.8480E-03
452.92	6.9001E-03
453.12	7.4366E-03
453.32	7.0105E-03
453.53	5.9872E-03
453.73	6.0787E-03
453.93	6.0903E-03
454.14	7.2539E-03
454.34	7.1241E-03
454.55	7.2737E-03
454.75	7.0755E-03
454.95	6.2676E-03
455.16	7.8428E-03
455.36	6.5110E-03
455.56	7.8157E-03
455.77	7.5565E-03
455.97	7.2293E-03
456.17	6.6547E-03
456.38	7.3594E-03
456.58	7.8716E-03
456.78	7.0809E-03
456.99	6.2224E-03
457.19	7.0865E-03
457.39	6.9269E-03
457.60	7.2743E-03
457.80	7.1121E-03
458.00	6.9253E-03
458.21	7.8110E-03
458.41	7.5870E-03
458.61	6.9871E-03
458.82	6.8877E-03
459.02	6.5440E-03
459.22	7.8839E-03
459.43	7.6392E-03
459.63	7.3358E-03
459.83	6.5782E-03
460.03	7.1963E-03
460.24	7.4492E-03
460.44	6.6991E-03
460.64	6.3796E-03
460.85	7.3711E-03
461.05	6.9574E-03
461.25	7.1513E-03
461.46	6.7767E-03
461.66	6.3641E-03
461.86	7.0015E-03
462.07	7.3555E-03
462.27	6.9524E-03
462.47	7.5433E-03
462.67	6.8312E-03
462.88	7.3851E-03
463.08	6.2283E-03
463.28	6.9582E-03
463.49	7.3782E-03
463.69	7.1568E-03
463.89	7.0846E-03
464.09	7.2201E-03
464.30	6.8135E-03
464.50	7.5530E-03
464.70	7.4448E-03
464.91	6.3026E-03
465.11	6.3890E-03
465.31	6.3392E-03
465.51	6.9164E-03
465.72	6.8134E-03
465.92	6.6398E-03
466.12	6.0875E-03
466.33	6.8066E-03
466.53	6.7731E-03
466.73	6.5941E-03
466.93	7.0033E-03
467.14	6.2224E-03
467.34	7.8188E-03
467.54	7.0644E-03
467.74	6.8889E-03
467.95	6.7099E-03
468.15	6.3610E-03
468.35	7.0103E-03
468.55	7.3462E-03
468.76	7.0737E-03
468.96	6.0627E-03
469.16	6.6451E-03
469.37	6.5902E-03
469.57	6.9767E-03
469.77	6.4409E-03
469.97	6.7279E-03
470.18	7.2019E-03
470.38	7.1838E-03
470.58	6.7135E-03
470.78	7.0184E-03
470.99	7.0575E-03
471.19	6.3655E-03
471.39	6.7080E-03
471.59	5.8599E-03
471.79	6.3582E-03
472.00	6.5306E-03
472.20	6.7568E-03
472.40	6.0815E-03
472.60	6.4239E-03
472.81	7.2839E-03
473.01	7.0319E-03
473.21	6.2968E-03
473.41	5.4627E-03
473.62	6.6921E-03
473.82	7.1062E-03
474.02	6.5010E-03
474.22	6.5726E-03
474.42	7.4466E-03
474.63	6.8405E-03
474.83	6.5978E-03
475.03	6.5436E-03
475.23	6.8239E-03
475.44	6.7022E-03
475.64	6.4161E-03
475.84	6.7551E-03
476.04	6.4114E-03
476.24	6.7345E-03
476.45	6.7670E-03
476.65	6.2349E-03
476.85	6.1515E-03
477.05	6.6567E-03
477.25	6.9469E-03
477.46	6.5672E-03
477.66	6.4085E-03
477.86	6.8499E-03
478.06	6.4154E-03
478.26	6.6568E-03
478.47	6.4046E-03
478.67	7.5109E-03
478.87	6.2988E-03
479.07	5.9241E-03
479.27	6.5912E-03
479.47	6.6956E-03
479.68	6.6129E-03
479.88	6.6948E-03
480.08	6.4959E-03
480.28	6.6900E-03
480.48	6.5350E-03
480.69	6.9534E-03
480.89	6.2764E-03
481.09	6.5482E-03
481.29	7.1297E-03
481.49	5.5805E-03
481.69	6.6886E-03
481.90	6.5288E-03
482.10	6.5915E-03
482.30	6.7400E-03
482.50	6.6980E-03
482.70	6.3680E-03
482.90	6.3916E-03
483.11	6.5003E-03
483.31	6.4988E-03
483.51	5.7209E-03
483.71	5.9322E-03
483.91	6.0775E-03
484.11	6.2199E-03
484.32	6.0925E-03
484.52	6.3632E-03
484.72	6.2327E-03
484.92	6.0392E-03
485.12	5.9667E-03
485.32	5.9410E-03
485.52	5.7946E-03
485.73	5.4878E-03
485.93	5.4123E-03
486.13	5.4590E-03
486.33	5.6054E-03
486.53	5.8721E-03
486.73	5.9499E-03
486.93	5.5949E-03
487.14	6.2810E-03
487.34	6.0799E-03
487.54	6.0486E-03
487.74	6.2282E-03
487.94	5.3086E-03
488.14	6.0065E-03
488.34	5.9703E-03
488.54	5.9215E-03
488.75	5.7814E-03
488.95	5.9170E-03
489.15	5.7562E-03
489.35	5.6044E-03
489.55	5.7481E-03
489.75	5.9608E-03
489.95	5.7198E-03
490.15	5.7573E-03
490.36	6.0258E-03
490.56	5.8013E-03
490.76	6.2303E-03
490.96	5.9453E-03
491.16	6.1191E-03
491.36	5.9183E-03
491.56	5.8767E-03
491.76	5.2067E-03
491.96	5.8923E-03
492.17	5.7441E-03
492.37	5.9952E-03
492.57	6.2057E-03
492.77	6.2263E-03
492.97	6.4387E-03
493.17	6.1993E-03
493.37	6.1210E-03
493.57	5.9513E-03
493.77	5.8465E-03
493.97	6.4920E-03
494.17	6.0135E-03
494.38	6.2263E-03
494.58	5.9404E-03
494.78	5.9334E-03
494.98	5.8962E-03
495.18	6.1761E-03
495.38	6.1468E-03
495.58	6.3454E-03
495.78	6.3855E-03
495.98	6.6059E-03
496.18	6.4881E-03
496.38	6.1647E-03
496.58	5.7625E-03
496.78	6.5441E-03
496.99	6.0412E-03
497.19	6.3764E-03
497.39	6.5918E-03
497.59	6.3164E-03
497.79	5.9107E-03
497.99	6.3963E-03
498.19	6.4586E-03
498.39	6.5536E-03
498.59	6.1209E-03
498.79	6.0731E-03
498.99	6.1130E-03
499.19	6.3964E-03
499.39	6.4611E-03
499.59	6.0902E-03
499.79	6.1257E-03
499.99	6.1051E-03
500.19	6.4692E-03
500.40	6.1963E-03
500.60	6.4116E-03
500.80	6.4379E-03
501.00	6.1975E-03
501.20	6.1435E-03
501.40	6.5987E-03
501.60	6.2859E-03
501.80	6.2846E-03
502.00	6.5534E-03
502.20	6.3385E-03
502.40	6.3537E-03
502.60	6.0000E-03
502.80	6.8506E-03
503.00	6.6119E-03
503.20	6.3277E-03
503.40	6.1766E-03
503.60	6.4070E-03
503.80	6.8177E-03
504.00	6.5479E-03
504.20	6.9040E-03
504.40	6.8499E-03
504.60	7.1095E-03
504.80	7.1155E-03
505.00	6.9967E-03
505.20	7.3464E-03
505.40	7.1276E-03
505.60	7.0133E-03
505.80	7.2343E-03
506.00	7.2401E-03
506.20	7.1327E-03
506.40	7.1507E-03
506.60	7.1815E-03
506.80	6.9408E-03
507.00	7.2946E-03
507.20	7.4655E-03
507.40	7.7190E-03
507.60	7.3316E-03
507.80	7.5091E-03
508.00	7.5892E-03
508.20	8.0148E-03
508.40	7.7593E-03
508.60	7.4217E-03
508.80	7.2089E-03
509.00	8.1808E-03
509.20	7.8597E-03
509.40	7.6884E-03
509.60	7.9266E-03
509.80	7.7108E-03
510.00	8.3175E-03
510.20	8.2249E-03
510.40	8.3952E-03
510.60	8.0868E-03
510.80	7.9564E-03
511.00	7.9694E-03
511.20	8.7238E-03
511.40	8.2062E-03
511.60	8.3270E-03
511.80	8.4431E-03
512.00	8.4852E-03
512.20	8.7400E-03
512.40	8.4235E-03
512.60	8.5911E-03
512.80	8.6154E-03
513.00	8.9861E-03
513.20	8.8411E-03
513.40	8.5934E-03
513.59	8.4142E-03
513.79	8.8443E-03
513.99	8.6854E-03
514.19	8.8467E-03
514.39	8.6047E-03
514.59	9.0072E-03
514.79	8.6779E-03
514.99	8.6169E-03
515.19	8.7943E-03
515.39	8.9151E-03
515.59	9.0057E-03
515.79	8.3506E-03
515.99	9.1878E-03
516.19	9.0698E-03
516.39	8.9051E-03
516.59	9.0735E-03
516.79	9.4527E-03
516.98	8.7716E-03
517.18	9.3848E-03
517.38	9.3204E-03
517.58	9.3817E-03
517.78	9.3448E-03
517.98	9.4424E-03
518.18	9.6177E-03
518.38	1.0323E-02
518.58	9.8002E-03
518.78	9.7568E-03
518.98	9.7846E-03
519.18	1.0121E-02
519.38	1.0511E-02
519.57	1.0407E-02
519.77	1.0095E-02
519.97	1.0620E-02
520.17	1.0538E-02
520.37	1.0573E-02
520.57	1.0876E-02
520.77	1.1056E-02
520.97	1.1046E-02
521.17	1.0986E-02
521.37	1.1435E-02
521.57	1.1709E-02
521.76	1.1255E-02
521.96	1.1758E-02
522.16	1.1580E-02
522.36	1.2192E-02
522.56	1.1408E-02
522.76	1.1826E-02
522.96	1.2317E-02
523.16	1.2018E-02
523.36	1.2402E-02
523.55	1.1964E-02
523.75	1.2113E-02
523.95	1.2206E-02
524.15	1.1903E-02
524.35	1.2194E-02
524.55	1.2309E-02
524.75	1.2650E-02
524.95	1.2750E-02
525.14	1.2504E-02
525.34	1.2334E-02
525.54	1.2004E-02
525.74	1.2408E-02
525.94	1.2584E-02
526.14	1.2995E-02
526.34	1.2966E-02
526.54	1.3376E-02
526.73	1.2735E-02
526.93	1.3387E-02
527.13	1.3489E-02
527.33	1.3634E-02
527.53	1.3945E-02
527.73	1.3565E-02
527.93	1.4000E-02
528.12	1.3403E-02
528.32	1.3745E-02
528.52	1.4333E-02
528.72	1.4563E-02
528.92	1.4228E-02
529.12	1.4239E-02
529.32	1.4439E-02
529.51	1.4731E-02
529.71	1.4823E-02
529.91	1.4823E-02
530.11	1.5123E-02
530.31	1.5601E-02
530.51	1.5012E-02
530.70	1.4978E-02
530.90	1.5429E-02
531.10	1.5167E-02
531.30	1.5434E-02
531.50	1.5347E-02
531.70	1.5513E-02
531.89	1.5084E-02
532.09	1.5213E-02
532.29	1.5144E-02
532.49	1.5765E-02
532.69	1.5591E-02
532.88	1.5483E-02
533.08	1.5129E-02
533.28	1.5537E-02
533.48	1.6100E-02
533.68	1.5765E-02
533.88	1.6413E-02
534.07	1.6295E-02
534.27	1.6237E-02
534.47	1.6525E-02
534.67	1.5719E-02
534.87	1.6411E-02
535.06	1.6379E-02
535.26	1.6120E-02
535.46	1.5983E-02
535.66	1.7068E-02
535.86	1.6287E-02
536.05	1.6299E-02
536.25	1.6534E-02
536.45	1.6668E-02
536.65	1.6574E-02
536.85	1.6354E-02
537.04	1.6726E-02
537.24	1.7282E-02
537.44	1.6157E-02
537.64	1.5879E-02
537.83	1.6774E-02
538.03	1.6902E-02
538.23	1.7297E-02
538.43	1.7180E-02
538.63	1.6594E-02
538.82	1.6870E-02
539.02	1.6899E-02
539.22	1.7245E-02
539.42	1.6746E-02
539.61	1.7228E-02
539.81	1.7343E-02
540.01	1.6812E-02
540.21	1.7139E-02
540.41	1.6934E-02
540.60	1.7117E-02
540.80	1.7134E-02
541.00	1.7094E-02
541.20	1.7583E-02
541.39	1.7436E-02
541.59	1.7332E-02
541.79	1.7498E-02
541.99	1.8062E-02
542.18	1.7694E-02
542.38	1.7631E-02
542.58	1.7613E-02
542.78	1.7895E-02
542.97	1.7308E-02
543.17	1.7927E-02
543.37	1.7480E-02
543.57	1.8209E-02
543.76	1.8688E-02
543.96	1.8397E-02
544.16	1.7901E-02
544.36	1.8251E-02
544.55	1.8973E-02
544.75	1.8510E-02
544.95	1.8893E-02
545.14	1.7822E-02
545.34	1.8946E-02
545.54	1.8359E-02
545.74	1.8568E-02
545.93	1.9009E-02
546.13	1.8792E-02
546.33	1.8384E-02
546.53	1.8225E-02
546.72	1.9073E-02
546.92	1.9056E-02
547.12	1.8601E-02
547.31	1.9003E-02
547.51	1.8803E-02
547.71	1.9389E-02
547.91	1.9343E-02
548.10	1.8459E-02
548.30	1.8843E-02
548.50	1.9569E-02
548.69	1.9297E-02
548.89	1.9168E-02
549.09	1.9197E-02
549.29	1.8918E-02
549.48	2.0154E-02
549.68	1.8850E-02
549.88	1.9689E-02
550.07	1.9860E-02
550.27	1.9653E-02
550.47	1.7141E-02
550.66	2.0373E-02
550.86	1.9011E-02
551.06	2.0346E-02
551.25	1.9428E-02
551.45	2.0251E-02
551.65	2.0258E-02
551.85	2.0705E-02
552.04	1.9157E-02
552.24	1.9987E-02
552.44	1.9508E-02
552.63	1.9530E-02
552.83	2.0168E-02
553.03	1.9389E-02
553.22	2.0657E-02
553.42	1.9852E-02
553.62	2.0899E-02
553.81	1.9860E-02
554.01	2.0436E-02
554.21	1.9710E-02
554.40	2.0328E-02
554.60	2.0038E-02
554.80	2.0458E-02
554.99	2.0364E-02
555.19	2.0266E-02
555.39	2.0505E-02
555.58	1.9970E-02
555.78	2.0200E-02
555.98	1.9981E-02
556.17	1.9960E-02
556.37	2.0192E-02
556.56	2.0171E-02
556.76	2.0123E-02
556.96	1.9611E-02
557.15	1.9966E-02
557.35	1.9704E-02
557.55	1.9691E-02
557.74	1.9576E-02
557.94	2.0016E-02
558.14	2.0244E-02
558.33	1.9419E-02
558.53	1.9283E-02
558.73	1.9753E-02
558.92	1.9090E-02
559.12	2.0159E-02
559.31	2.0212E-02
559.51	2.0611E-02
559.71	1.9866E-02
559.90	2.0257E-02
560.10	2.0153E-02
560.30	2.0089E-02
560.49	1.9709E-02
560.69	2.0285E-02
560.88	2.0689E-02
561.08	1.9485E-02
561.28	1.9621E-02
561.47	2.0199E-02
561.67	2.0199E-02
561.86	1.9637E-02
562.06	2.0005E-02
562.26	2.0445E-02
562.45	1.9930E-02
562.65	2.0241E-02
562.84	1.9304E-02
563.04	1.9707E-02
563.24	1.9587E-02
563.43	2.0334E-02
563.63	2.0226E-02
563.82	1.9748E-02
564.02	2.0171E-02
564.22	2.0391E-02
564.41	1.9405E-02
564.61	1.9891E-02
564.80	1.9918E-02
565.00	1.9439E-02
565.20	2.0192E-02
565.39	1.9112E-02
565.59	1.8671E-02
565.78	1.9380E-02
565.98	1.8638E-02
566.18	1.9787E-02
566.37	1.9244E-02
566.57	1.8944E-02
566.76	1.8656E-02
566.96	1.9565E-02
567.15	1.8790E-02
567.35	1.9869E-02
567.55	1.9143E-02
567.74	1.9260E-02
567.94	1.8733E-02
568.13	1.9280E-02
568.33	1.9798E-02
568.52	1.9626E-02
568.72	1.9076E-02
568.91	1.8835E-02
569.11	1.8886E-02
569.31	1.9626E-02
569.50	1.8543E-02
569.70	1.9151E-02
569.89	1.8844E-02
570.09	1.8619E-02
570.28	1.8267E-02
570.48	1.8576E-02
570.67	1.9182E-02
570.87	1.8034E-02
571.07	1.7966E-02
571.26	1.8638E-02
571.46	1.8361E-02
571.65	1.8591E-02
571.85	1.8832E-02
572.04	1.8419E-02
572.24	1.9124E-02
572.43	1.8181E-02
572.63	1.8831E-02
572.82	1.8200E-02
573.02	1.8787E-02
573.21	1.8183E-02
573.41	1.8564E-02
573.60	1.9111E-02
573.80	1.8757E-02
573.99	1.8386E-02
574.19	1.9094E-02
574.38	1.8570E-02
574.58	1.8796E-02
574.78	1.8032E-02
574.97	1.8890E-02
575.17	1.8609E-02
575.36	1.8239E-02
575.56	1.7849E-02
575.75	1.8991E-02
575.95	1.8267E-02
576.14	1.7843E-02
576.34	1.8785E-02
576.53	1.8022E-02
576.73	1.8240E-02
576.92	1.7569E-02
577.12	1.8855E-02
577.31	1.7115E-02
577.51	1.8861E-02
577.70	1.8190E-02
577.90	1.8154E-02
578.09	1.8495E-02
578.29	1.7908E-02
578.48	1.8812E-02
578.68	1.8167E-02
578.87	1.9303E-02
579.06	1.7984E-02
579.26	1.8529E-02
579.45	1.7979E-02
579.65	1.9243E-02
579.84	1.8344E-02
580.04	1.8840E-02
580.23	1.9147E-02
580.43	1.7686E-02
580.62	1.8518E-02
580.82	1.8551E-02
581.01	1.8210E-02
581.21	1.8084E-02
581.40	1.7838E-02
581.60	1.8704E-02
581.79	1.8905E-02
581.99	1.8011E-02
582.18	1.8041E-02
582.37	1.8467E-02
582.57	1.8371E-02
582.76	1.8774E-02
582.96	1.8889E-02
583.15	1.8676E-02
583.35	1.8601E-02
583.54	1.8674E-02
583.74	1.8517E-02
583.93	1.7969E-02
584.12	1.7520E-02
584.32	1.8771E-02
584.51	1.8281E-02
584.71	1.7414E-02
584.90	1.7610E-02
585.10	1.7698E-02
585.29	1.7921E-02
585.49	1.8042E-02
585.68	1.8363E-02
585.87	1.8004E-02
586.07	1.7817E-02
586.26	1.7611E-02
586.46	1.7646E-02
586.65	1.7358E-02
586.85	1.7785E-02
587.04	1.6516E-02
587.23	1.7824E-02
587.43	1.7460E-02
587.62	1.6030E-02
587.82	1.7278E-02
588.01	1.6516E-02
588.20	1.6737E-02
588.40	1.6105E-02
588.59	1.6822E-02
588.79	1.7025E-02
588.98	1.7403E-02
589.18	1.6818E-02
589.37	1.7368E-02
589.56	1.6380E-02
589.76	1.6086E-02
589.95	1.7490E-02
590.15	1.6972E-02
590.34	1.6373E-02
590.53	1.7479E-02
590.73	1.6756E-02
590.92	1.6794E-02
591.11	1.7362E-02
591.31	1.7338E-02
591.50	1.7780E-02
591.70	1.7426E-02
591.89	1.8265E-02
592.08	1.7132E-02
592.28	1.6865E-02
592.47	1.8051E-02
592.67	1.7724E-02
592.86	1.7681E-02
593.05	1.6796E-02
593.25	1.7815E-02
593.44	1.7302E-02
593.63	1.8171E-02
593.83	1.7211E-02
594.02	1.8288E-02
594.22	1.8108E-02
594.41	1.8542E-02
594.60	1.7690E-02
594.80	1.7826E-02
594.99	1.7803E-02
595.18	1.7765E-02
595.38	1.7484E-02
595.57	1.7763E-02
595.76	1.7974E-02
595.96	1.7727E-02
596.15	1.6881E-02
596.34	1.8841E-02
596.54	1.8609E-02
596.73	1.8132E-02
596.93	1.8518E-02
597.12	1.7832E-02
597.31	1.8547E-02
597.51	1.8013E-02
597.70	1.8238E-02
597.89	1.7951E-02
598.09	1.7701E-02
598.28	1.9379E-02
598.47	1.7998E-02
598.67	1.8297E-02
598.86	1.7663E-02
599.05	1.8986E-02
599.25	1.8397E-02
599.44	1.8790E-02
599.63	1.9266E-02
599.83	1.8296E-02
600.02	1.8387E-02
600.21	1.8412E-02
600.41	1.8693E-02
600.60	1.7778E-02
600.79	1.8490E-02
600.98	1.8569E-02
601.18	1.9578E-02
601.37	1.8055E-02
601.56	1.8281E-02
601.76	1.9939E-02
601.95	1.8279E-02
602.14	1.8593E-02
602.34	1.8624E-02
602.53	1.9383E-02
602.72	1.8290E-02
602.92	1.9050E-02
603.11	1.8588E-02
603.30	1.9154E-02
603.49	1.8484E-02
603.69	1.9762E-02
603.88	1.8992E-02
604.07	1.9523E-02
604.27	1.8921E-02
604.46	1.8215E-02
604.65	1.8952E-02
604.84	1.8778E-02
605.04	1.9203E-02
605.23	1.8792E-02
605.42	1.8813E-02
605.62	1.9111E-02
605.81	1.8422E-02
606.00	1.8588E-02
606.19	1.9176E-02
606.39	1.9132E-02
606.58	1.8455E-02
606.77	1.8660E-02
606.97	1.8078E-02
607.16	1.8941E-02
607.35	1.9225E-02
607.54	1.8616E-02
607.74	1.9410E-02
607.93	1.9558E-02
608.12	1.8570E-02
608.31	1.8982E-02
608.51	1.9084E-02
608.70	1.8470E-02
608.89	1.8329E-02
609.08	1.7875E-02
609.28	1.8660E-02
609.47	1.8844E-02
609.66	1.9019E-02
609.85	1.9090E-02
610.05	1.9248E-02
610.24	1.8327E-02
610.43	1.8755E-02
610.62	1.8326E-02
610.82	1.8052E-02
611.01	1.8599E-02
611.20	1.8203E-02
611.39	1.8328E-02
611.59	1.8234E-02
611.78	1.8680E-02
611.97	1.8374E-02
612.16	1.9173E-02
612.35	1.7997E-02
612.55	1.8091E-02
612.74	1.8743E-02
612.93	1.8575E-02
613.12	1.7521E-02
613.32	1.8187E-02
613.51	1.8363E-02
613.70	1.8247E-02
613.89	1.8357E-02
614.08	1.8496E-02
614.28	1.8228E-02
614.47	1.7725E-02
614.66	1.8035E-02
614.85	1.8613E-02
615.04	1.8442E-02
615.24	1.9315E-02
615.43	1.8395E-02
615.62	1.7938E-02
615.81	1.8083E-02
616.00	1.6959E-02
616.20	1.7998E-02
616.39	1.8079E-02
616.58	1.8081E-02
616.77	1.8038E-02
616.96	1.9248E-02
617.16	1.9051E-02
617.35	1.8660E-02
617.54	1.7998E-02
617.73	1.7702E-02
617.92	1.7736E-02
618.12	1.8742E-02
618.31	1.8374E-02
618.50	1.8548E-02
618.69	1.8110E-02
618.88	1.9377E-02
619.07	1.8598E-02
619.27	1.8926E-02
619.46	1.9032E-02
619.65	1.9909E-02
619.84	1.8643E-02
620.03	1.8451E-02
620.22	1.9581E-02
620.42	1.7632E-02
620.61	1.9746E-02
620.80	1.9422E-02
620.99	1.9174E-02
621.18	2.0188E-02
621.37	1.8886E-02
621.57	1.7836E-02
621.76	1.9411E-02
621.95	1.9210E-02
622.14	1.8453E-02
622.33	1.7965E-02
622.52	1.8681E-02
622.71	1.9422E-02
622.91	1.9783E-02
623.10	1.9489E-02
623.29	1.9184E-02
623.48	1.8731E-02
623.67	1.9548E-02
623.86	1.9548E-02
624.05	1.9471E-02
624.25	1.8631E-02
624.44	1.9554E-02
624.63	2.0299E-02
624.82	1.9589E-02
625.01	1.9119E-02
625.20	2.0121E-02
625.39	1.8614E-02
625.58	1.9763E-02
625.78	2.0116E-02
625.97	1.8332E-02
626.16	1.9096E-02
626.35	1.8959E-02
626.54	1.9962E-02
626.73	1.9954E-02
626.92	1.9368E-02
627.11	1.9278E-02
627.31	1.9188E-02
627.50	1.9038E-02
627.69	1.9635E-02
627.88	1.9930E-02
628.07	1.7530E-02
628.26	1.9044E-02
628.45	1.8757E-02
628.64	1.9074E-02
628.83	1.8949E-02
629.02	1.7390E-02
629.22	2.0308E-02
629.41	1.8762E-02
629.60	1.7686E-02
629.79	1.9873E-02
629.98	1.8746E-02
630.17	1.9370E-02
630.36	1.9091E-02
630.55	1.9260E-02
630.74	1.9530E-02
630.93	2.0176E-02
631.12	1.8528E-02
631.31	1.8642E-02
631.51	1.9900E-02
631.70	1.9664E-02
631.89	1.8658E-02
632.08	1.8866E-02
632.27	1.9230E-02
632.46	1.8873E-02
632.65	1.8998E-02
632.84	1.7998E-02
633.03	2.0052E-02
633.22	1.8961E-02
633.41	1.9921E-02
633.60	1.9785E-02
633.79	1.8937E-02
633.98	1.7780E-02
634.17	1.9147E-02
634.37	1.9071E-02
634.56	1.9858E-02
634.75	1.8147E-02
634.94	1.9619E-02
635.13	1.8864E-02
635.32	1.9806E-02
635.51	1.9599E-02
635.70	1.8417E-02
635.89	2.0799E-02
636.08	1.9208E-02
636.27	1.8475E-02
636.46	1.9946E-02
636.65	1.9068E-02
636.84	1.8355E-02
637.03	1.9802E-02
637.22	1.9712E-02
637.41	1.9231E-02
637.60	1.9826E-02
637.79	1.9951E-02
637.98	1.9605E-02
638.17	1.9662E-02
638.36	1.8872E-02
638.55	1.8048E-02
638.74	1.8330E-02
638.93	1.8756E-02
639.12	1.8494E-02
639.31	1.8817E-02
639.50	1.8430E-02
639.69	1.8083E-02
639.88	1.9343E-02
640.07	1.8391E-02
640.26	1.9612E-02
640.45	1.9044E-02
640.64	1.9456E-02
640.83	1.9316E-02
641.02	2.0194E-02
641.21	1.9046E-02
641.40	1.7430E-02
641.59	1.9239E-02
641.78	1.9667E-02
641.97	1.9367E-02
642.16	1.9858E-02
642.35	1.9541E-02
642.54	1.9671E-02
642.73	1.9022E-02
642.92	1.6924E-02
643.11	1.9681E-02
643.30	1.9914E-02
643.49	1.8675E-02
643.68	1.9127E-02
643.87	1.7887E-02
644.06	1.8985E-02
644.25	1.8034E-02
644.44	1.8331E-02
644.63	1.8117E-02
644.82	1.8070E-02
645.01	1.8706E-02
645.20	1.8574E-02
645.39	1.8013E-02
645.58	1.7607E-02
645.77	1.7563E-02
645.96	1.8654E-02
646.15	1.7739E-02
646.34	1.7969E-02
646.53	1.7612E-02
646.72	1.7924E-02
646.91	1.6732E-02
647.10	1.8887E-02
647.29	1.7259E-02
647.47	1.8079E-02
647.66	1.7153E-02
647.85	1.6580E-02
648.04	1.6668E-02
648.23	1.6739E-02
648.42	1.8830E-02
648.61	1.5798E-02
648.80	1.7075E-02
648.99	1.7751E-02
649.18	1.6103E-02
649.37	1.7395E-02
649.56	1.6707E-02
649.75	1.6360E-02
649.94	1.7576E-02
650.13	1.7242E-02
650.31	1.7507E-02
650.50	1.6738E-02
650.69	1.7449E-02
650.88	1.6748E-02
651.07	1.6904E-02
651.26	1.7356E-02
651.45	1.8532E-02
651.64	1.7543E-02
651.83	1.6433E-02
652.02	1.7273E-02
652.21	1.6674E-02
652.40	1.6769E-02
652.58	1.8908E-02
652.77	1.6593E-02
652.96	1.6269E-02
653.15	1.7605E-02
653.34	1.7455E-02
653.53	1.7627E-02
653.72	1.7461E-02
653.91	1.6234E-02
654.10	1.6709E-02
654.29	1.5780E-02
654.47	1.7850E-02
654.66	1.5171E-02
654.85	1.5786E-02
655.04	1.5026E-02
655.23	1.6199E-02
655.42	1.4632E-02
655.61	1.5949E-02
655.80	1.5679E-02
655.98	1.6585E-02
656.17	1.6269E-02
656.36	1.6702E-02
656.55	1.5794E-02
656.74	1.7465E-02
656.93	1.7101E-02
657.12	1.7249E-02
657.31	1.5892E-02
657.49	1.8237E-02
657.68	1.7500E-02
657.87	1.5500E-02
658.06	1.8366E-02
658.25	1.6708E-02
658.44	1.7821E-02
658.63	1.6871E-02
658.81	1.6332E-02
659.00	1.7235E-02
659.19	1.6661E-02
659.38	1.8558E-02
659.57	1.8424E-02
659.76	1.6983E-02
659.95	1.8693E-02
660.13	1.6028E-02
660.32	1.7697E-02
660.51	1.7125E-02
660.70	1.8145E-02
660.89	1.7179E-02
661.08	1.7607E-02
661.26	1.6761E-02
661.45	1.7848E-02
661.64	1.6944E-02
661.83	1.6793E-02
662.02	1.7104E-02
662.21	1.7951E-02
662.39	1.8451E-02
662.58	1.7455E-02
662.77	1.9420E-02
662.96	1.8345E-02
663.15	1.7059E-02
663.33	1.8970E-02
663.52	1.7641E-02
663.71	1.7714E-02
663.90	1.7719E-02
664.09	1.6436E-02
664.28	1.7321E-02
664.46	1.6518E-02
664.65	1.6671E-02
664.84	1.5788E-02
665.03	1.7032E-02
665.22	1.7630E-02
665.40	1.7450E-02
665.59	1.6649E-02
665.78	1.6521E-02
665.97	1.6529E-02
666.16	1.7319E-02
666.34	1.8060E-02
666.53	1.6221E-02
666.72	1.7737E-02
666.91	1.6997E-02
667.09	1.7091E-02
667.28	1.7816E-02
667.47	1.7516E-02
667.66	1.6835E-02
667.85	1.6761E-02
668.03	1.3254E-02
668.22	1.7802E-02
668.41	1.7035E-02
668.60	1.4836E-02
668.78	1.7767E-02
668.97	1.6708E-02
669.16	1.5771E-02
669.35	1.7623E-02
669.54	1.5621E-02
669.72	1.7635E-02
669.91	1.6606E-02
670.10	1.7231E-02
670.29	1.7041E-02
670.47	1.8001E-02
670.66	1.8508E-02
670.85	1.7316E-02
671.04	1.5943E-02
671.22	1.5987E-02
671.41	1.7273E-02
671.60	1.7448E-02
671.79	1.7530E-02
671.97	1.6734E-02
672.16	1.8692E-02
672.35	1.7977E-02
672.54	1.7997E-02
672.72	1.6964E-02
672.91	1.6052E-02
673.10	1.6852E-02
673.28	1.6272E-02
673.47	1.6628E-02
673.66	1.6648E-02
673.85	1.8323E-02
674.03	1.7294E-02
674.22	1.7090E-02
674.41	1.6070E-02
674.60	1.6147E-02
674.78	1.4570E-02
674.97	1.5473E-02
675.16	1.8746E-02
675.34	1.7394E-02
675.53	1.6424E-02
675.72	1.5787E-02
675.91	1.8608E-02
676.09	1.7215E-02
676.28	1.8071E-02
676.47	1.7567E-02
676.65	1.5823E-02
676.84	1.7218E-02
677.03	1.8034E-02
677.22	1.6667E-02
677.40	1.7788E-02
677.59	1.7305E-02
677.78	1.6807E-02
677.96	1.7199E-02
678.15	1.8124E-02
678.34	1.9254E-02
678.52	1.6798E-02
678.71	1.7366E-02
678.90	1.7547E-02
679.08	1.8005E-02
679.27	1.6680E-02
679.46	1.9048E-02
679.64	1.7872E-02
679.83	1.7260E-02
680.02	1.7450E-02
680.21	1.5199E-02
680.39	1.8400E-02
680.58	1.7470E-02
680.77	1.7066E-02
680.95	1.7430E-02
681.14	1.5543E-02
681.33	1.7314E-02
681.51	1.8239E-02
681.70	1.7801E-02
681.89	1.8563E-02
682.07	1.7551E-02
682.26	1.5574E-02
682.44	1.8068E-02
682.63	1.7749E-02
682.82	1.8495E-02
683.00	1.5322E-02
683.19	1.7393E-02
683.38	1.8068E-02
683.56	1.8564E-02
683.75	1.7837E-02
683.94	1.6250E-02
684.12	1.6294E-02
684.31	1.8299E-02
684.50	1.8747E-02
684.68	1.7124E-02
684.87	1.7084E-02
685.05	1.7750E-02
685.24	1.5941E-02
685.43	1.7214E-02
685.61	1.7089E-02
685.80	1.5827E-02
685.99	1.7320E-02
686.17	1.5625E-02
686.36	1.7849E-02
686.54	1.7864E-02
686.73	1.7271E-02
686.92	1.7308E-02
687.10	1.6624E-02
687.29	1.8046E-02
687.48	1.6476E-02
687.66	1.9054E-02
687.85	1.6946E-02
688.03	1.7729E-02
688.22	1.6248E-02
688.41	1.8239E-02
688.59	1.6107E-02
688.78	1.8393E-02
688.96	1.8760E-02
689.15	1.9852E-02
689.34	1.5937E-02
689.52	2.0296E-02
689.71	1.8666E-02
689.89	1.9595E-02
690.08	2.0999E-02
690.27	1.9630E-02
690.45	1.9044E-02
690.64	1.8815E-02
690.82	1.7971E-02
691.01	1.9672E-02
691.19	1.9040E-02
691.38	1.9709E-02
691.57	2.0636E-02
691.75	1.8886E-02
691.94	2.0876E-02
692.12	1.9421E-02
692.31	2.0906E-02
692.50	1.9879E-02
692.68	2.0824E-02
692.87	2.2046E-02
693.05	2.1170E-02
693.24	1.9537E-02
693.42	2.0490E-02
693.61	2.1488E-02
693.79	2.2492E-02
693.98	2.0802E-02
694.17	2.1889E-02
694.35	2.3293E-02
694.54	2.3405E-02
694.72	2.2554E-02
694.91	2.2817E-02
695.09	2.2956E-02
695.28	2.3269E-02
695.46	2.3707E-02
695.65	2.4147E-02
695.83	2.4484E-02
696.02	2.5674E-02
696.21	2.6148E-02
696.39	2.4753E-02
696.58	2.5864E-02
696.76	2.2561E-02
696.95	2.4514E-02
697.13	2.4921E-02
697.32	2.5749E-02
697.50	2.5589E-02
697.69	2.6251E-02
697.87	2.7103E-02
698.06	2.7233E-02
698.24	2.5751E-02
698.43	2.6396E-02
698.61	2.8834E-02
698.80	2.7436E-02
698.98	2.8965E-02
699.17	2.5506E-02
699.35	2.8252E-02
699.54	2.7654E-02
699.72	2.5871E-02
699.91	2.9062E-02
700.09	2.9109E-02
700.28	2.9612E-02
700.46	2.9876E-02
700.65	2.9483E-02
700.83	3.0496E-02
701.02	3.1384E-02
701.20	2.8051E-02
701.39	3.2668E-02
701.57	3.1401E-02
701.76	3.0106E-02
701.94	3.1576E-02
702.13	3.2430E-02
702.31	2.9631E-02
702.50	3.5967E-02
702.68	3.4765E-02
702.87	3.5654E-02
703.05	3.6024E-02
703.24	3.5250E-02
703.42	3.1664E-02
703.61	3.6800E-02
703.79	3.7874E-02
703.98	3.5200E-02
704.16	3.6681E-02
704.35	3.6316E-02
704.53	3.7575E-02
704.72	3.8031E-02
704.90	3.8809E-02
705.08	3.7082E-02
705.27	4.0403E-02
705.45	4.0164E-02
705.64	4.1190E-02
705.82	4.0940E-02
706.01	4.1174E-02
706.19	4.0544E-02
706.38	4.1534E-02
706.56	4.3881E-02
706.75	4.3692E-02
706.93	4.3104E-02
707.11	4.1416E-02
707.30	4.4598E-02
707.48	4.4279E-02
707.67	4.2983E-02
707.85	4.4103E-02
708.04	4.5393E-02
708.22	4.5313E-02
708.40	4.4320E-02
708.59	4.3771E-02
708.77	4.7061E-02
708.96	4.6298E-02
709.14	4.7446E-02
709.33	4.6809E-02
709.51	4.8302E-02
709.69	4.8567E-02
709.88	4.9445E-02
710.06	4.9351E-02
710.25	4.8224E-02
710.43	5.0027E-02
710.62	5.1451E-02
710.80	5.0490E-02
710.98	5.1612E-02
711.17	5.1172E-02
711.35	5.2235E-02
711.54	5.3116E-02
711.72	5.1626E-02
711.90	5.3611E-02
712.09	5.3903E-02
712.27	5.1920E-02
712.46	5.3904E-02
712.64	5.2643E-02
712.82	5.5703E-02
713.01	5.5864E-02
713.19	5.5942E-02
713.37	5.4911E-02
713.56	5.4610E-02
713.74	5.6593E-02
713.93	5.5162E-02
714.11	5.4365E-02
714.29	5.2791E-02
714.48	5.5881E-02
714.66	5.5972E-02
714.85	5.4327E-02
715.03	5.4798E-02
715.21	5.4506E-02
715.40	5.2996E-02
715.58	5.3219E-02
715.76	5.1859E-02
715.95	5.2598E-02
716.13	5.4649E-02
716.31	5.3406E-02
716.50	5.2795E-02
716.68	5.1536E-02
716.87	5.3141E-02
717.05	5.3158E-02
717.23	5.0956E-02
717.42	5.2481E-02
717.60	5.1492E-02
717.78	5.2375E-02
717.97	5.2366E-02
718.15	5.1692E-02
718.33	5.1411E-02
718.52	5.3151E-02
718.70	5.4412E-02
718.88	5.2927E-02
719.07	5.7177E-02
719.25	5.5207E-02
719.43	5.6758E-02
719.62	5.6572E-02
719.80	5.7203E-02
719.98	6.0106E-02
720.17	5.9501E-02
720.35	5.9855E-02
720.53	6.2148E-02
720.72	6.3481E-02
720.90	6.2641E-02
721.08	6.2204E-02
721.27	6.3437E-02
721.45	6.3945E-02
721.63	6.4033E-02
721.82	6.5844E-02
722.00	6.4930E-02
722.18	6.5127E-02
722.36	6.7290E-02
722.55	6.6861E-02
722.73	6.7199E-02
722.91	6.7310E-02
723.10	6.8726E-02
723.28	6.7633E-02
723.46	6.4668E-02
723.65	6.7383E-02
723.83	6.7766E-02
724.01	6.7494E-02
724.19	6.9238E-02
724.38	6.9570E-02
724.56	7.0581E-02
724.74	7.1799E-02
724.93	6.8979E-02
725.11	6.9939E-02
725.29	7.2442E-02
725.47	7.2664E-02
725.66	7.2973E-02
725.84	7.2774E-02
726.02	7.3701E-02
726.21	7.5925E-02
726.39	7.4512E-02
726.57	7.5637E-02
726.75	7.5195E-02
726.94	7.7968E-02
727.12	7.6790E-02
727.30	7.7183E-02
727.48	7.6657E-02
727.67	7.9298E-02
727.85	7.8385E-02
728.03	8.0000E-02
728.21	8.1978E-02
728.40	8.0319E-02
728.58	8.3513E-02
728.76	8.2454E-02
728.94	8.4177E-02
729.13	8.5933E-02
729.31	8.4444E-02
729.49	8.6684E-02
729.67	8.7498E-02
729.86	8.8980E-02
730.04	8.7785E-02
730.22	9.1501E-02
730.40	9.2071E-02
730.59	9.3231E-02
730.77	9.4666E-02
730.95	9.7287E-02
731.13	9.7180E-02
731.31	9.8753E-02
731.50	9.7501E-02
731.68	1.0261E-01
731.86	1.0202E-01
732.04	1.0400E-01
732.23	1.0654E-01
732.41	1.0610E-01
732.59	1.0795E-01
732.77	1.0906E-01
732.95	1.1015E-01
733.14	1.0985E-01
733.32	1.1350E-01
733.50	1.1308E-01
733.68	1.1364E-01
733.86	1.1442E-01
734.05	1.1632E-01
734.23	1.1741E-01
734.41	1.1502E-01
734.59	1.1743E-01
734.77	1.1872E-01
734.96	1.1687E-01
735.14	1.2118E-01
735.32	1.2109E-01
735.50	1.2144E-01
735.68	1.2432E-01
735.87	1.2367E-01
736.05	1.2707E-01
736.23	1.2312E-01
736.41	1.2742E-01
736.59	1.2735E-01
736.77	1.2738E-01
736.96	1.2775E-01
737.14	1.2670E-01
737.32	1.3075E-01
737.50	1.3248E-01
737.68	1.3233E-01
737.87	1.3357E-01
738.05	1.3565E-01
738.23	1.3227E-01
738.41	1.3438E-01
738.59	1.3588E-01
738.77	1.3700E-01
738.95	1.3955E-01
739.14	1.3711E-01
739.32	1.3810E-01
739.50	1.4181E-01
739.68	1.3910E-01
739.86	1.4074E-01
740.04	1.4110E-01
740.23	1.3996E-01
740.41	1.4364E-01
740.59	1.4454E-01
740.77	1.4622E-01
740.95	1.4562E-01
741.13	1.4543E-01
741.31	1.4514E-01
741.50	1.4644E-01
741.68	1.4654E-01
741.86	1.4696E-01
742.04	1.5021E-01
742.22	1.5164E-01
742.40	1.5129E-01
742.58	1.5269E-01
742.76	1.5373E-01
742.95	1.5114E-01
743.13	1.5606E-01
743.31	1.5587E-01
743.49	1.5572E-01
743.67	1.5864E-01
743.85	1.5836E-01
744.03	1.5744E-01
744.21	1.5941E-01
744.39	1.5806E-01
744.58	1.6134E-01
744.76	1.6177E-01
744.94	1.6384E-01
745.12	1.6279E-01
745.30	1.6177E-01
745.48	1.6421E-01
745.66	1.6523E-01
745.84	1.6254E-01
746.02	1.6313E-01
746.20	1.6504E-01
746.38	1.6651E-01
746.57	1.6869E-01
746.75	1.6384E-01
746.93	1.6760E-01
747.11	1.6533E-01
747.29	1.6713E-01
747.47	1.6921E-01
747.65	1.6915E-01
747.83	1.6625E-01
748.01	1.6896E-01
748.19	1.6980E-01
748.37	1.6980E-01
748.55	1.6979E-01
748.73	1.6882E-01
748.92	1.7073E-01
749.10	1.6941E-01
749.28	1.7215E-01
749.46	1.7082E-01
749.64	1.7035E-01
749.82	1.7192E-01
750.00	1.7373E-01
750.18	1.7361E-01
750.36	1.7177E-01
750.54	1.7475E-01
750.72	1.7647E-01
750.90	1.7690E-01
751.08	1.7619E-01
751.26	1.7807E-01
751.44	1.7821E-01
751.62	1.8034E-01
751.80	1.7898E-01
751.98	1.8017E-01
752.16	1.8127E-01
752.34	1.8178E-01
752.52	1.8300E-01
752.71	1.8003E-01
752.89	1.7984E-01
753.07	1.8436E-01
753.25	1.8087E-01
753.43	1.8559E-01
753.61	1.8310E-01
753.79	1.8679E-01
753.97	1.8609E-01
754.15	1.8708E-01
754.33	1.8855E-01
754.51	1.8915E-01
754.69	1.8968E-01
754.87	1.8849E-01
755.05	1.8908E-01
755.23	1.9131E-01
755.41	1.9266E-01
755.59	1.8290E-01
755.77	1.8891E-01
755.95	1.8803E-01
756.13	1.8440E-01
756.31	1.8701E-01
756.49	1.8567E-01
756.67	1.8207E-01
756.85	1.7972E-01
757.03	1.7624E-01
757.21	1.7394E-01
757.39	1.7150E-01
757.57	1.6931E-01
757.75	1.6306E-01
757.93	1.5670E-01
758.11	1.5470E-01
758.29	1.5112E-01
758.47	1.4633E-01
758.65	1.4403E-01
758.83	1.4401E-01
759.01	1.3873E-01
759.18	1.3372E-01
759.36	1.2643E-01
759.54	1.2698E-01
759.72	1.2185E-01
759.90	1.2185E-01
760.08	1.2005E-01
760.26	1.1871E-01
760.44	1.1487E-01
760.62	1.1184E-01
760.80	1.1151E-01
760.98	1.1555E-01
761.16	1.1527E-01
761.34	1.1338E-01
761.52	1.1674E-01
761.70	1.1360E-01
761.88	1.1501E-01
762.06	1.1600E-01
762.24	1.1633E-01
762.42	1.1783E-01
762.60	1.1910E-01
762.78	1.2158E-01
762.95	1.2233E-01
763.13	1.2625E-01
763.31	1.2892E-01
763.49	1.2951E-01
763.67	1.3272E-01
763.85	1.3278E-01
764.03	1.3997E-01
764.21	1.4022E-01
764.39	1.4531E-01
764.57	1.5083E-01
764.75	1.5287E-01
764.93	1.6051E-01
765.11	1.5951E-01
765.28	1.6585E-01
765.46	1.6817E-01
765.64	1.7040E-01
765.82	1.7515E-01
766.00	1.7900E-01
766.18	1.8206E-01
766.36	1.8458E-01
766.54	1.8637E-01
766.72	1.8970E-01
766.90	1.9581E-01
767.07	1.9274E-01
767.25	1.9743E-01
767.43	2.0019E-01
767.61	2.0388E-01
767.79	2.0590E-01
767.97	2.0657E-01
768.15	2.0653E-01
768.33	2.0646E-01
768.51	2.1050E-01
768.68	2.1129E-01
768.86	2.1062E-01
769.04	2.1194E-01
769.22	2.1700E-01
769.40	2.1679E-01
769.58	2.1513E-01
769.76	2.2014E-01
769.94	2.2002E-01
770.11	2.1729E-01
770.29	2.1932E-01
770.47	2.1912E-01
770.65	2.1987E-01
770.83	2.1992E-01
771.01	2.2191E-01
771.19	2.2182E-01
771.36	2.1927E-01
771.54	2.2202E-01
771.72	2.2015E-01
771.90	2.1797E-01
772.08	2.2115E-01
772.26	2.2313E-01
772.44	2.1837E-01
772.61	2.2086E-01
772.79	2.1803E-01
772.97	2.2198E-01
773.15	2.2353E-01
773.33	2.1894E-01
773.51	2.2183E-01
773.68	2.1883E-01
773.86	2.1752E-01
774.04	2.1951E-01
774.22	2.1713E-01
774.40	2.1838E-01
774.58	2.2004E-01
774.75	2.1945E-01
774.93	2.1573E-01
775.11	2.2030E-01
775.29	2.1748E-01
775.47	2.1533E-01
775.64	2.1947E-01
775.82	2.1748E-01
776.00	2.1831E-01
776.18	2.1595E-01
776.36	2.1632E-01
776.53	2.2057E-01
776.71	2.1572E-01
776.89	2.1506E-01
777.07	2.1660E-01
777.25	2.1590E-01
777.42	2.1566E-01
777.60	2.1345E-01
777.78	2.1541E-01
777.96	2.1379E-01
778.14	2.1632E-01
778.31	2.1383E-01
778.49	2.0953E-01
778.67	2.1057E-01
778.85	2.1181E-01
779.03	2.1320E-01
779.20	2.1233E-01
779.38	2.1106E-01
779.56	2.0811E-01
779.74	2.1148E-01
779.91	2.0879E-01
780.09	2.0789E-01
780.27	2.0537E-01
780.45	2.0671E-01
780.62	2.0804E-01
780.80	2.0886E-01
780.98	2.0405E-01
781.16	2.0188E-01
781.34	2.0635E-01
781.51	2.0702E-01
781.69	2.0734E-01
781.87	2.0612E-01
782.05	2.0479E-01
782.22	2.0538E-01
782.40	2.0377E-01
782.58	2.0461E-01
782.76	2.0202E-01
782.93	2.0505E-01
783.11	2.0633E-01
783.29	2.0169E-01
783.47	2.0158E-01
783.64	2.0268E-01
783.82	2.0053E-01
784.00	1.9699E-01
784.17	1.9957E-01
784.35	1.9980E-01
784.53	1.9824E-01
784.71	2.0018E-01
784.88	1.9795E-01
785.06	2.0097E-01
785.24	1.9717E-01
785.42	1.9876E-01
785.59	1.9684E-01
785.77	1.9197E-01
785.95	1.9370E-01
786.12	1.9078E-01
786.30	1.9316E-01
786.48	1.9189E-01
786.65	1.9016E-01
786.83	1.9075E-01
787.01	1.9141E-01
787.19	1.8975E-01
787.36	1.8999E-01
787.54	1.8816E-01
787.72	1.8891E-01
787.89	1.8777E-01
788.07	1.8708E-01
788.25	1.8590E-01
788.42	1.8461E-01
788.60	1.8714E-01
788.78	1.8410E-01
788.96	1.8406E-01
789.13	1.8156E-01
789.31	1.8182E-01
789.49	1.8182E-01
789.66	1.8354E-01
789.84	1.8011E-01
790.02	1.7621E-01
790.19	1.7868E-01
790.37	1.8000E-01
790.55	1.7887E-01
790.72	1.7851E-01
790.90	1.8162E-01
791.08	1.7706E-01
791.25	1.7756E-01
791.43	1.7786E-01
791.61	1.7635E-01
791.78	1.7601E-01
791.96	1.7278E-01
792.14	1.7555E-01
792.31	1.7728E-01
792.49	1.7186E-01
792.67	1.7794E-01
792.84	1.7346E-01
793.02	1.7356E-01
793.19	1.7196E-01
793.37	1.7526E-01
793.55	1.7533E-01
793.72	1.7428E-01
793.90	1.7030E-01
794.08	1.7278E-01
794.25	1.7310E-01
794.43	1.7075E-01
794.61	1.7242E-01
794.78	1.7247E-01
794.96	1.6919E-01
795.13	1.7210E-01
795.31	1.7267E-01
795.49	1.6858E-01
795.66	1.7085E-01
795.84	1.6959E-01
796.01	1.6982E-01
796.19	1.6785E-01
796.37	1.7009E-01
796.54	1.6896E-01
796.72	1.6990E-01
796.90	1.6812E-01
797.07	1.6543E-01
797.25	1.6787E-01
797.42	1.6975E-01
797.60	1.6915E-01
797.78	1.6705E-01
797.95	1.6447E-01
798.13	1.6313E-01
798.30	1.6629E-01
798.48	1.6491E-01
798.66	1.6712E-01
798.83	1.6189E-01
799.01	1.6455E-01
799.18	1.6238E-01
799.36	1.6558E-01
799.53	1.5855E-01
799.71	1.6380E-01
799.89	1.6080E-01
800.06	1.6155E-01
800.24	1.6120E-01
800.41	1.5739E-01
800.59	1.6290E-01
800.76	1.5813E-01
800.94	1.5777E-01
801.12	1.6064E-01
801.29	1.5955E-01
801.47	1.6067E-01
801.64	1.5709E-01
801.82	1.6042E-01
801.99	1.5967E-01
802.17	1.5960E-01
802.34	1.5837E-01
802.52	1.5827E-01
802.70	1.5928E-01
802.87	1.5584E-01
803.05	1.5441E-01
803.22	1.6063E-01
803.40	1.5724E-01
803.57	1.5718E-01
803.75	1.6047E-01
803.92	1.5829E-01
804.10	1.5453E-01
804.27	1.5469E-01
804.45	1.5682E-01
804.63	1.5575E-01
804.80	1.5401E-01
804.98	1.5713E-01
805.15	1.5279E-01
805.33	1.5907E-01
805.50	1.5947E-01
805.68	1.5854E-01
805.85	1.6013E-01
806.03	1.5736E-01
806.20	1.5740E-01
806.38	1.5086E-01
806.55	1.5247E-01
806.73	1.5899E-01
806.90	1.5477E-01
807.08	1.5353E-01
807.25	1.5012E-01
807.43	1.5355E-01
807.60	1.5481E-01
807.78	1.5027E-01
807.95	1.4674E-01
808.13	1.4858E-01
808.30	1.4751E-01
808.48	1.5164E-01
808.65	1.4892E-01
808.83	1.5286E-01
809.00	1.4846E-01
809.18	1.5151E-01
809.35	1.4484E-01
809.53	1.4838E-01
809.70	1.4578E-01
809.88	1.4590E-01
810.05	1.4454E-01
810.23	1.4619E-01
810.40	1.4357E-01
810.57	1.4307E-01
810.75	1.3973E-01
810.92	1.3894E-01
811.10	1.3881E-01
811.27	1.3488E-01
811.45	1.3597E-01
811.62	1.3395E-01
811.80	1.3133E-01
811.97	1.3330E-01
812.15	1.3264E-01
812.32	1.3218E-01
812.50	1.2565E-01
812.67	1.3396E-01
812.84	1.2531E-01
813.02	1.2784E-01
813.19	1.2668E-01
813.37	1.2626E-01
813.54	1.2220E-01
813.72	1.2285E-01
813.89	1.1836E-01
814.07	1.2048E-01
814.24	1.1997E-01
814.41	1.1957E-01
814.59	1.1436E-01
814.76	1.1317E-01
814.94	1.1549E-01
815.11	1.1649E-01
815.29	1.0784E-01
815.46	1.0905E-01
815.63	1.1098E-01
815.81	1.1118E-01
815.98	1.0454E-01
816.16	1.0511E-01
816.33	1.1014E-01
816.50	1.1219E-01
816.68	1.0923E-01
816.85	1.0677E-01
817.03	1.0933E-01
817.20	1.0781E-01
817.37	1.1018E-01
817.55	1.0751E-01
817.72	1.0942E-01
817.90	1.0529E-01
818.07	1.0929E-01
818.24	1.0467E-01
818.42	1.0659E-01
818.59	1.0676E-01
818.77	1.0708E-01
818.94	1.1053E-01
819.11	1.0540E-01
819.29	1.1095E-01
819.46	1.1019E-01
819.64	1.0467E-01
819.81	1.1264E-01
819.98	1.1130E-01
820.16	1.0677E-01
820.33	1.1042E-01
820.50	1.0963E-01
820.68	1.0613E-01
820.85	1.0952E-01
821.02	1.0832E-01
821.20	1.0519E-01
821.37	1.0846E-01
821.55	1.0303E-01
821.72	1.0632E-01
821.89	1.0703E-01
822.07	1.1043E-01
822.24	1.0989E-01
822.41	1.0300E-01
822.59	1.1285E-01
822.76	1.1265E-01
822.93	1.0712E-01
823.11	1.0869E-01
823.28	1.1105E-01
823.45	1.0868E-01
823.63	1.0938E-01
823.80	1.1321E-01
823.97	1.0483E-01
824.15	1.1402E-01
824.32	1.1040E-01
824.49	1.1726E-01
824.67	1.1117E-01
824.84	1.1391E-01
825.01	1.1375E-01
825.19	1.1400E-01
825.36	1.1380E-01
825.53	1.1691E-01
825.71	1.1572E-01
825.88	1.1661E-01
826.05	1.1167E-01
826.23	1.1563E-01
826.40	1.1288E-01
826.57	1.1330E-01
826.75	1.1152E-01
826.92	1.0862E-01
827.09	1.0858E-01
827.26	1.1687E-01
827.44	1.1228E-01
827.61	1.1592E-01
827.78	1.1258E-01
827.96	1.0657E-01
828.13	1.1537E-01
828.30	1.1239E-01
828.48	1.1066E-01
828.65	1.0991E-01
828.82	1.1061E-01
828.99	1.1080E-01
829.17	1.1186E-01
829.34	1.0425E-01
829.51	1.1004E-01
829.68	1.1411E-01
829.86	1.1223E-01
830.03	1.0947E-01
830.20	1.1129E-01
830.38	1.0969E-01
830.55	1.0585E-01
830.72	1.1036E-01
830.89	1.0509E-01
831.07	1.0503E-01
831.24	1.0531E-01
831.41	1.0722E-01
831.58	1.1089E-01
831.76	1.1400E-01
831.93	1.1146E-01
832.10	1.1126E-01
832.27	1.0485E-01
832.45	1.0491E-01
832.62	1.1050E-01
832.79	1.0743E-01
832.96	1.1154E-01
833.14	1.0559E-01
833.31	1.1445E-01
833.48	1.1138E-01
833.65	1.0828E-01
833.83	1.1490E-01
834.00	1.1630E-01
834.17	1.1190E-01
834.34	1.1449E-01
834.51	1.1170E-01
834.69	1.0963E-01
834.86	1.1603E-01
835.03	1.1224E-01
835.20	1.1567E-01
835.38	1.1280E-01
835.55	1.1372E-01
835.72	1.1169E-01
835.89	1.2085E-01
836.06	1.1217E-01
836.24	1.1186E-01
836.41	1.0902E-01
836.58	1.1632E-01
836.75	1.1544E-01
836.92	1.1386E-01
837.10	1.0995E-01
837.27	1.1261E-01
837.44	1.1001E-01
837.61	1.1739E-01
837.78	1.1086E-01
837.96	1.1453E-01
838.13	1.1265E-01
838.30	1.1688E-01
838.47	1.1475E-01
838.64	1.1342E-01
838.82	1.1290E-01
838.99	1.1949E-01
839.16	1.1198E-01
839.33	1.1300E-01
839.50	1.1869E-01
839.67	1.1511E-01
839.85	1.0852E-01
840.02	1.1438E-01
840.19	1.1125E-01
840.36	1.1736E-01
840.53	1.1003E-01
840.70	1.0948E-01
840.88	1.1692E-01
841.05	1.1920E-01
841.22	1.1566E-01
841.39	1.1580E-01
841.56	1.1675E-01
841.73	1.1547E-01
841.91	1.1804E-01
842.08	1.1775E-01
842.25	1.1655E-01
842.42	1.1825E-01
842.59	1.1617E-01
842.76	1.2288E-01
842.93	1.1639E-01
843.11	1.1817E-01
843.28	1.1617E-01
843.45	1.1630E-01
843.62	1.1190E-01
843.79	1.1327E-01
843.96	1.2021E-01
844.13	1.1648E-01
844.30	1.1578E-01
844.48	1.1950E-01
844.65	1.1103E-01
844.82	1.0799E-01
844.99	1.1259E-01
845.16	1.1169E-01
845.33	1.1277E-01
845.50	1.1287E-01
845.67	1.0779E-01
845.84	1.1220E-01
846.02	1.0909E-01
846.19	1.1159E-01
846.36	1.1106E-01
846.53	1.1696E-01
846.70	1.1204E-01
846.87	1.0532E-01
847.04	1.1291E-01
847.21	1.1276E-01
847.38	1.1263E-01
847.55	1.1190E-01
847.73	1.0712E-01
847.90	1.0932E-01
848.07	1.0474E-01
848.24	1.0592E-01
848.41	1.0361E-01
848.58	1.1664E-01
848.75	1.0647E-01
848.92	1.1340E-01
849.09	1.0712E-01
849.26	1.0464E-01
849.43	1.0212E-01
849.60	1.0527E-01
849.77	1.0905E-01
849.94	9.3523E-02
850.12	1.0952E-01
850.29	1.0633E-01
850.46	1.0396E-01
850.63	1.0183E-01
850.80	1.0454E-01
850.97	1.0423E-01
851.14	9.8737E-02
851.31	9.4338E-02
851.48	1.0013E-01
851.65	1.0203E-01
851.82	1.0669E-01
851.99	1.0502E-01
852.16	9.4285E-02
852.33	1.0207E-01
852.50	9.9114E-02
852.67	1.0019E-01
852.84	1.0209E-01
853.01	9.9195E-02
853.18	1.0263E-01
853.35	9.6509E-02
853.52	1.0653E-01
853.69	9.9195E-02
853.86	9.4030E-02
854.03	9.3416E-02
854.21	1.0096E-01
854.38	9.8713E-02
854.55	1.0167E-01
854.72	1.0247E-01
854.89	9.4419E-02
855.06	8.8899E-02
855.23	9.7190E-02
855.40	1.0288E-01
855.57	9.2710E-02
855.74	9.5385E-02
855.91	9.7763E-02
856.08	9.2952E-02
856.25	9.8134E-02
856.42	9.6672E-02
856.59	9.6292E-02
856.76	9.8281E-02
856.93	9.7852E-02
857.10	9.7776E-02
857.27	1.0538E-01
857.44	1.0102E-01
857.61	1.0074E-01
857.77	9.5277E-02
857.94	9.5835E-02
858.11	9.4815E-02
858.28	1.0450E-01
858.45	9.5431E-02
858.62	1.0098E-01
858.79	9.7905E-02
858.96	9.8638E-02
859.13	9.9143E-02
859.30	1.0340E-01
859.47	9.7479E-02
859.64	9.1445E-02
859.81	1.0286E-01
859.98	1.0304E-01
860.15	9.8750E-02
860.32	9.6076E-02
860.49	1.0876E-01
860.66	1.0026E-01
860.83	1.0173E-01
861.00	9.9870E-02
861.17	1.0110E-01
861.34	1.0200E-01
861.51	9.1256E-02
861.68	1.0297E-01
861.84	1.0017E-01
862.01	9.5144E-02
862.18	9.6809E-02
862.35	1.0044E-01
862.52	9.9986E-02
862.69	9.6450E-02
862.86	9.8407E-02
863.03	1.0035E-01
863.20	9.7649E-02
863.37	9.8809E-02
863.54	9.2553E-02
863.71	9.2645E-02
863.88	9.5634E-02
864.05	9.4888E-02
864.21	9.8934E-02
864.38	9.0701E-02
864.55	8.8125E-02
864.72	9.9158E-02
864.89	9.2649E-02
865.06	9.7355E-02
865.23	9.0720E-02
865.40	8.6483E-02
865.57	9.6711E-02
865.74	9.2271E-02
865.90	9.3015E-02
866.07	9.2306E-02
866.24	8.4981E-02
866.41	8.3929E-02
866.58	8.5965E-02
866.75	8.6918E-02
866.92	8.7564E-02
867.09	8.7899E-02
867.26	8.8236E-02
867.42	8.2758E-02
867.59	7.8911E-02
867.76	8.8521E-02
867.93	8.4052E-02
868.10	8.6828E-02
868.27	7.6990E-02
868.44	8.7348E-02
868.60	9.0077E-02
868.77	8.8845E-02
868.94	8.6246E-02
869.11	8.5505E-02
869.28	9.1114E-02
869.45	7.9748E-02
869.62	8.9444E-02
869.78	8.6331E-02
869.95	8.0967E-02
870.12	8.4620E-02
870.29	8.8646E-02
870.46	8.9263E-02
870.63	8.3724E-02
870.80	7.9261E-02
870.96	8.3796E-02
871.13	8.2444E-02
871.30	8.8189E-02
871.47	8.8886E-02
871.64	8.8265E-02
871.81	7.4738E-02
871.97	9.1674E-02
872.14	7.8639E-02
872.31	7.6568E-02
872.48	8.1579E-02
872.65	8.7936E-02
872.81	8.2600E-02
872.98	8.9970E-02
873.15	8.7005E-02
873.32	8.7174E-02
873.49	8.2209E-02
873.66	8.6495E-02
873.82	8.2563E-02
873.99	7.9263E-02
874.16	8.4259E-02
874.33	8.0628E-02
874.50	8.6012E-02
874.66	8.1994E-02
874.83	8.3319E-02
875.00	8.1923E-02
875.17	7.2950E-02
875.34	8.6023E-02
875.50	7.9923E-02
875.67	7.8252E-02
875.84	8.0005E-02
876.01	7.7632E-02
876.17	7.4896E-02
876.34	7.4591E-02
876.51	8.5936E-02
876.68	8.3136E-02
876.85	8.0813E-02
877.01	8.4099E-02
877.18	7.7223E-02
877.35	7.9705E-02
877.52	7.8927E-02
877.68	8.2728E-02
877.85	7.7299E-02
878.02	7.9349E-02
878.19	7.7164E-02
878.35	7.9819E-02
878.52	7.8419E-02
878.69	8.0108E-02
878.86	7.2420E-02
879.02	7.6225E-02
879.19	7.0527E-02
879.36	7.4122E-02
879.53	6.6366E-02
879.69	7.2749E-02
879.86	8.0295E-02
880.03	7.9200E-02
880.20	7.2219E-02
880.36	8.0062E-02
880.53	7.0701E-02
880.70	8.0842E-02
880.87	7.3983E-02
881.03	7.4090E-02
881.20	6.5711E-02
881.37	7.2553E-02
881.54	7.4837E-02
881.70	7.9366E-02
881.87	7.1090E-02
882.04	7.1907E-02
882.20	7.2159E-02
882.37	6.6762E-02
882.54	7.5141E-02
882.71	7.4220E-02
882.87	7.8919E-02
883.04	7.1729E-02
883.21	7.1753E-02
883.37	6.8970E-02
883.54	7.1251E-02
883.71	6.9336E-02
883.87	6.6196E-02
884.04	7.6697E-02
884.21	6.9975E-02
884.38	6.7110E-02
884.54	7.8222E-02
884.71	7.8241E-02
884.88	6.9904E-02
885.04	7.2415E-02
885.21	6.8037E-02
885.38	6.7927E-02
885.54	7.9655E-02
885.71	6.8517E-02
885.88	7.2129E-02
886.04	7.0652E-02
886.21	7.0941E-02
886.38	6.8011E-02
886.54	6.8547E-02
886.71	6.5104E-02
886.88	7.5292E-02
887.04	6.2318E-02
887.21	6.7016E-02
887.38	7.2717E-02
887.54	6.7448E-02
887.71	7.2881E-02
887.88	6.0212E-02
888.04	7.7774E-02
888.21	6.3988E-02
888.38	7.9194E-02
888.54	6.4571E-02
888.71	6.6754E-02
888.87	5.7049E-02
889.04	5.7049E-02
>>>>>End Processed Spectral Data<<<<<
