SpectraSuite Data File
++++++++++++++++++++++++++++++++++++
Date: Wed Jul 25 11:10:35 HST 2007
User: guest
Dark Spectrum Present: Yes
Reference Spectrum Present: No
Number of Sampled Component Spectra: 1
Spectrometers: USB4E01242
Integration Time (usec): 100000 (USB4E01242)
Spectra Averaged: 1 (USB4E01242)
Boxcar Smoothing: 10 (USB4E01242)
Correct for Electrical Dark: No (USB4E01242)
Strobe/Lamp Enabled: No (USB4E01242)
Correct for Detector Non-linearity: No (USB4E01242)
Correct for Stray Light: No (USB4E01242)
Number of Pixels in Processed Spectrum: 3648
>>>>>Begin Processed Spectral Data<<<<<
177.33	0.0000E00
177.55	0.0000E00
177.77	0.0000E00
177.99	0.0000E00
178.21	0.0000E00
178.43	0.0000E00
178.64	0.0000E00
178.86	0.0000E00
179.08	0.0000E00
179.30	0.0000E00
179.52	0.0000E00
179.74	0.0000E00
179.96	0.0000E00
180.18	0.0000E00
180.39	0.0000E00
180.61	0.0000E00
180.83	0.0000E00
181.05	0.0000E00
181.27	0.0000E00
181.49	0.0000E00
181.71	0.0000E00
181.92	0.0000E00
182.14	0.0000E00
182.36	0.0000E00
182.58	0.0000E00
182.80	0.0000E00
183.02	0.0000E00
183.23	0.0000E00
183.45	0.0000E00
183.67	0.0000E00
183.89	0.0000E00
184.11	0.0000E00
184.33	0.0000E00
184.55	0.0000E00
184.76	0.0000E00
184.98	0.0000E00
185.20	0.0000E00
185.42	0.0000E00
185.64	0.0000E00
185.86	0.0000E00
186.07	0.0000E00
186.29	0.0000E00
186.51	0.0000E00
186.73	0.0000E00
186.95	0.0000E00
187.17	0.0000E00
187.38	0.0000E00
187.60	0.0000E00
187.82	0.0000E00
188.04	0.0000E00
188.26	0.0000E00
188.47	0.0000E00
188.69	0.0000E00
188.91	0.0000E00
189.13	0.0000E00
189.35	0.0000E00
189.57	0.0000E00
189.78	0.0000E00
190.00	0.0000E00
190.22	0.0000E00
190.44	0.0000E00
190.66	0.0000E00
190.87	0.0000E00
191.09	0.0000E00
191.31	0.0000E00
191.53	-0.0000E00
191.75	0.0000E00
191.97	0.0000E00
192.18	0.0000E00
192.40	0.0000E00
192.62	0.0000E00
192.84	0.0000E00
193.06	0.0000E00
193.27	0.0000E00
193.49	0.0000E00
193.71	0.0000E00
193.93	0.0000E00
194.15	0.0000E00
194.36	0.0000E00
194.58	0.0000E00
194.80	0.0000E00
195.02	0.0000E00
195.23	0.0000E00
195.45	0.0000E00
195.67	0.0000E00
195.89	0.0000E00
196.11	0.0000E00
196.32	0.0000E00
196.54	0.0000E00
196.76	0.0000E00
196.98	0.0000E00
197.20	0.0000E00
197.41	0.0000E00
197.63	0.0000E00
197.85	0.0000E00
198.07	0.0000E00
198.28	0.0000E00
198.50	0.0000E00
198.72	0.0000E00
198.94	0.0000E00
199.16	0.0000E00
199.37	0.0000E00
199.59	0.0000E00
199.81	0.0000E00
200.03	0.0000E00
200.24	0.0000E00
200.46	0.0000E00
200.68	0.0000E00
200.90	0.0000E00
201.11	0.0000E00
201.33	0.0000E00
201.55	0.0000E00
201.77	0.0000E00
201.98	0.0000E00
202.20	0.0000E00
202.42	0.0000E00
202.64	0.0000E00
202.86	0.0000E00
203.07	0.0000E00
203.29	0.0000E00
203.51	0.0000E00
203.73	0.0000E00
203.94	0.0000E00
204.16	0.0000E00
204.38	0.0000E00
204.60	0.0000E00
204.81	0.0000E00
205.03	0.0000E00
205.25	0.0000E00
205.46	0.0000E00
205.68	0.0000E00
205.90	0.0000E00
206.12	0.0000E00
206.33	0.0000E00
206.55	0.0000E00
206.77	0.0000E00
206.99	0.0000E00
207.20	0.0000E00
207.42	0.0000E00
207.64	0.0000E00
207.86	0.0000E00
208.07	0.0000E00
208.29	0.0000E00
208.51	0.0000E00
208.72	0.0000E00
208.94	0.0000E00
209.16	0.0000E00
209.38	0.0000E00
209.59	0.0000E00
209.81	0.0000E00
210.03	0.0000E00
210.25	0.0000E00
210.46	0.0000E00
210.68	0.0000E00
210.90	0.0000E00
211.11	0.0000E00
211.33	0.0000E00
211.55	0.0000E00
211.77	0.0000E00
211.98	0.0000E00
212.20	0.0000E00
212.42	0.0000E00
212.63	0.0000E00
212.85	0.0000E00
213.07	0.0000E00
213.29	0.0000E00
213.50	0.0000E00
213.72	0.0000E00
213.94	0.0000E00
214.15	0.0000E00
214.37	0.0000E00
214.59	0.0000E00
214.80	0.0000E00
215.02	0.0000E00
215.24	0.0000E00
215.45	0.0000E00
215.67	0.0000E00
215.89	0.0000E00
216.11	0.0000E00
216.32	0.0000E00
216.54	0.0000E00
216.76	0.0000E00
216.97	0.0000E00
217.19	0.0000E00
217.41	0.0000E00
217.62	0.0000E00
217.84	0.0000E00
218.06	0.0000E00
218.27	0.0000E00
218.49	0.0000E00
218.71	0.0000E00
218.92	0.0000E00
219.14	0.0000E00
219.36	0.0000E00
219.57	0.0000E00
219.79	0.0000E00
220.01	0.0000E00
220.22	0.0000E00
220.44	0.0000E00
220.66	0.0000E00
220.88	0.0000E00
221.09	0.0000E00
221.31	0.0000E00
221.53	0.0000E00
221.74	0.0000E00
221.96	0.0000E00
222.17	0.0000E00
222.39	0.0000E00
222.61	0.0000E00
222.82	0.0000E00
223.04	0.0000E00
223.26	0.0000E00
223.47	0.0000E00
223.69	0.0000E00
223.91	0.0000E00
224.12	0.0000E00
224.34	0.0000E00
224.56	0.0000E00
224.77	0.0000E00
224.99	0.0000E00
225.21	0.0000E00
225.42	0.0000E00
225.64	0.0000E00
225.86	0.0000E00
226.07	0.0000E00
226.29	0.0000E00
226.50	0.0000E00
226.72	0.0000E00
226.94	0.0000E00
227.15	0.0000E00
227.37	0.0000E00
227.59	0.0000E00
227.80	0.0000E00
228.02	0.0000E00
228.24	0.0000E00
228.45	0.0000E00
228.67	-0.0000E00
228.88	0.0000E00
229.10	0.0000E00
229.32	0.0000E00
229.53	0.0000E00
229.75	0.0000E00
229.97	0.0000E00
230.18	0.0000E00
230.40	0.0000E00
230.61	0.0000E00
230.83	0.0000E00
231.05	0.0000E00
231.26	0.0000E00
231.48	0.0000E00
231.70	0.0000E00
231.91	0.0000E00
232.13	0.0000E00
232.34	0.0000E00
232.56	0.0000E00
232.78	0.0000E00
232.99	0.0000E00
233.21	0.0000E00
233.42	0.0000E00
233.64	0.0000E00
233.86	0.0000E00
234.07	0.0000E00
234.29	0.0000E00
234.50	0.0000E00
234.72	0.0000E00
234.94	0.0000E00
235.15	0.0000E00
235.37	0.0000E00
235.58	0.0000E00
235.80	0.0000E00
236.02	0.0000E00
236.23	0.0000E00
236.45	0.0000E00
236.66	0.0000E00
236.88	0.0000E00
237.10	0.0000E00
237.31	0.0000E00
237.53	0.0000E00
237.74	0.0000E00
237.96	0.0000E00
238.17	0.0000E00
238.39	0.0000E00
238.61	0.0000E00
238.82	0.0000E00
239.04	0.0000E00
239.25	0.0000E00
239.47	0.0000E00
239.69	0.0000E00
239.90	0.0000E00
240.12	0.0000E00
240.33	0.0000E00
240.55	0.0000E00
240.76	0.0000E00
240.98	0.0000E00
241.20	0.0000E00
241.41	0.0000E00
241.63	0.0000E00
241.84	0.0000E00
242.06	0.0000E00
242.27	0.0000E00
242.49	0.0000E00
242.70	0.0000E00
242.92	0.0000E00
243.14	0.0000E00
243.35	0.0000E00
243.57	0.0000E00
243.78	0.0000E00
244.00	0.0000E00
244.21	0.0000E00
244.43	0.0000E00
244.64	0.0000E00
244.86	0.0000E00
245.08	0.0000E00
245.29	0.0000E00
245.51	0.0000E00
245.72	0.0000E00
245.94	0.0000E00
246.15	0.0000E00
246.37	0.0000E00
246.58	0.0000E00
246.80	0.0000E00
247.01	0.0000E00
247.23	0.0000E00
247.45	0.0000E00
247.66	0.0000E00
247.88	0.0000E00
248.09	0.0000E00
248.31	0.0000E00
248.52	0.0000E00
248.74	0.0000E00
248.95	0.0000E00
249.17	0.0000E00
249.38	0.0000E00
249.60	0.0000E00
249.81	0.0000E00
250.03	0.0000E00
250.24	0.0000E00
250.46	0.0000E00
250.67	0.0000E00
250.89	0.0000E00
251.10	0.0000E00
251.32	0.0000E00
251.53	0.0000E00
251.75	0.0000E00
251.97	0.0000E00
252.18	0.0000E00
252.40	0.0000E00
252.61	0.0000E00
252.83	0.0000E00
253.04	0.0000E00
253.26	0.0000E00
253.47	0.0000E00
253.69	0.0000E00
253.90	0.0000E00
254.12	0.0000E00
254.33	0.0000E00
254.55	0.0000E00
254.76	0.0000E00
254.98	0.0000E00
255.19	0.0000E00
255.41	0.0000E00
255.62	0.0000E00
255.84	0.0000E00
256.05	0.0000E00
256.27	0.0000E00
256.48	0.0000E00
256.70	0.0000E00
256.91	0.0000E00
257.13	0.0000E00
257.34	0.0000E00
257.55	0.0000E00
257.77	0.0000E00
257.98	0.0000E00
258.20	0.0000E00
258.41	0.0000E00
258.63	0.0000E00
258.84	0.0000E00
259.06	0.0000E00
259.27	0.0000E00
259.49	0.0000E00
259.70	0.0000E00
259.92	0.0000E00
260.13	0.0000E00
260.35	0.0000E00
260.56	0.0000E00
260.78	0.0000E00
260.99	0.0000E00
261.21	0.0000E00
261.42	0.0000E00
261.63	0.0000E00
261.85	0.0000E00
262.06	0.0000E00
262.28	0.0000E00
262.49	0.0000E00
262.71	0.0000E00
262.92	0.0000E00
263.14	0.0000E00
263.35	0.0000E00
263.57	0.0000E00
263.78	0.0000E00
264.00	0.0000E00
264.21	0.0000E00
264.42	0.0000E00
264.64	0.0000E00
264.85	0.0000E00
265.07	0.0000E00
265.28	0.0000E00
265.50	0.0000E00
265.71	0.0000E00
265.93	0.0000E00
266.14	0.0000E00
266.35	0.0000E00
266.57	0.0000E00
266.78	0.0000E00
267.00	0.0000E00
267.21	0.0000E00
267.43	0.0000E00
267.64	0.0000E00
267.85	0.0000E00
268.07	0.0000E00
268.28	0.0000E00
268.50	0.0000E00
268.71	0.0000E00
268.93	0.0000E00
269.14	0.0000E00
269.35	0.0000E00
269.57	0.0000E00
269.78	0.0000E00
270.00	0.0000E00
270.21	0.0000E00
270.43	0.0000E00
270.64	0.0000E00
270.85	0.0000E00
271.07	0.0000E00
271.28	0.0000E00
271.50	0.0000E00
271.71	0.0000E00
271.92	0.0000E00
272.14	0.0000E00
272.35	0.0000E00
272.57	0.0000E00
272.78	0.0000E00
272.99	0.0000E00
273.21	0.0000E00
273.42	0.0000E00
273.64	0.0000E00
273.85	0.0000E00
274.07	0.0000E00
274.28	0.0000E00
274.49	0.0000E00
274.71	0.0000E00
274.92	0.0000E00
275.13	0.0000E00
275.35	0.0000E00
275.56	0.0000E00
275.78	0.0000E00
275.99	0.0000E00
276.20	0.0000E00
276.42	0.0000E00
276.63	0.0000E00
276.85	0.0000E00
277.06	0.0000E00
277.27	0.0000E00
277.49	0.0000E00
277.70	0.0000E00
277.92	0.0000E00
278.13	0.0000E00
278.34	0.0000E00
278.56	0.0000E00
278.77	0.0000E00
278.98	0.0000E00
279.20	0.0000E00
279.41	0.0000E00
279.63	0.0000E00
279.84	0.0000E00
280.05	0.0000E00
280.27	0.0000E00
280.48	0.0000E00
280.69	0.0000E00
280.91	0.0000E00
281.12	0.0000E00
281.33	0.0000E00
281.55	0.0000E00
281.76	0.0000E00
281.98	0.0000E00
282.19	0.0000E00
282.40	0.0000E00
282.62	0.0000E00
282.83	0.0000E00
283.04	0.0000E00
283.26	0.0000E00
283.47	0.0000E00
283.68	0.0000E00
283.90	0.0000E00
284.11	0.0000E00
284.32	0.0000E00
284.54	0.0000E00
284.75	0.0000E00
284.96	0.0000E00
285.18	0.0000E00
285.39	0.0000E00
285.60	0.0000E00
285.82	0.0000E00
286.03	0.0000E00
286.24	0.0000E00
286.46	0.0000E00
286.67	0.0000E00
286.88	0.0000E00
287.10	0.0000E00
287.31	0.0000E00
287.52	0.0000E00
287.74	0.0000E00
287.95	0.0000E00
288.16	0.0000E00
288.38	0.0000E00
288.59	0.0000E00
288.80	0.0000E00
289.02	0.0000E00
289.23	0.0000E00
289.44	0.0000E00
289.66	0.0000E00
289.87	0.0000E00
290.08	0.0000E00
290.30	0.0000E00
290.51	0.0000E00
290.72	0.0000E00
290.94	0.0000E00
291.15	0.0000E00
291.36	0.0000E00
291.57	0.0000E00
291.79	0.0000E00
292.00	0.0000E00
292.21	0.0000E00
292.43	0.0000E00
292.64	0.0000E00
292.85	0.0000E00
293.07	0.0000E00
293.28	0.0000E00
293.49	0.0000E00
293.70	0.0000E00
293.92	0.0000E00
294.13	0.0000E00
294.34	0.0000E00
294.56	0.0000E00
294.77	0.0000E00
294.98	0.0000E00
295.20	0.0000E00
295.41	0.0000E00
295.62	0.0000E00
295.83	0.0000E00
296.05	0.0000E00
296.26	0.0000E00
296.47	0.0000E00
296.69	0.0000E00
296.90	0.0000E00
297.11	0.0000E00
297.32	0.0000E00
297.54	0.0000E00
297.75	0.0000E00
297.96	0.0000E00
298.17	0.0000E00
298.39	0.0000E00
298.60	0.0000E00
298.81	0.0000E00
299.03	0.0000E00
299.24	0.0000E00
299.45	0.0000E00
299.66	0.0000E00
299.88	0.0000E00
300.09	2.2408E-02
300.30	1.8347E-02
300.51	2.8494E-02
300.73	1.8540E-02
300.94	2.1928E-02
301.15	2.5661E-02
301.36	1.7052E-02
301.58	2.1151E-02
301.79	3.6617E-02
302.00	2.2421E-02
302.21	2.0651E-02
302.43	2.9884E-02
302.64	2.1272E-02
302.85	2.9995E-02
303.06	1.9179E-02
303.28	2.8198E-02
303.49	2.0706E-02
303.70	3.2745E-02
303.91	2.1931E-02
304.13	2.0240E-02
304.34	2.5104E-02
304.55	3.4228E-02
304.76	1.8556E-02
304.98	2.2403E-02
305.19	3.1937E-02
305.40	2.0377E-02
305.61	2.9852E-02
305.82	2.3625E-02
306.04	3.1656E-02
306.25	2.0631E-02
306.46	3.4971E-02
306.67	2.3381E-02
306.89	2.4691E-02
307.10	3.2269E-02
307.31	3.1084E-02
307.52	2.7536E-02
307.74	3.5662E-02
307.95	3.5220E-02
308.16	1.9050E-02
308.37	2.9838E-02
308.58	2.6840E-02
308.80	3.4408E-02
309.01	3.1438E-02
309.22	1.9517E-02
309.43	2.4729E-02
309.64	3.3440E-02
309.86	3.9371E-02
310.07	2.9775E-02
310.28	3.2994E-02
310.49	3.4498E-02
310.70	2.5291E-02
310.92	3.5406E-02
311.13	3.0818E-02
311.34	3.3442E-02
311.55	3.4174E-02
311.76	3.2914E-02
311.98	4.6314E-02
312.19	3.4387E-02
312.40	3.0134E-02
312.61	3.3323E-02
312.82	3.9720E-02
313.04	3.1940E-02
313.25	4.0424E-02
313.46	3.3433E-02
313.67	3.4196E-02
313.88	3.6774E-02
314.10	3.3873E-02
314.31	3.5112E-02
314.52	3.6767E-02
314.73	3.9653E-02
314.94	4.7278E-02
315.16	4.8841E-02
315.37	5.6277E-02
315.58	4.0239E-02
315.79	4.7868E-02
316.00	5.0059E-02
316.21	5.4541E-02
316.43	3.6806E-02
316.64	4.2055E-02
316.85	3.9699E-02
317.06	4.8025E-02
317.27	5.3582E-02
317.48	4.4398E-02
317.70	4.7117E-02
317.91	4.5484E-02
318.12	5.4275E-02
318.33	4.1867E-02
318.54	4.5556E-02
318.75	4.7245E-02
318.97	5.4958E-02
319.18	4.6622E-02
319.39	4.3911E-02
319.60	4.5822E-02
319.81	5.1961E-02
320.02	4.3976E-02
320.24	4.4850E-02
320.45	4.9838E-02
320.66	3.9429E-02
320.87	4.7547E-02
321.08	5.5556E-02
321.29	5.4470E-02
321.50	4.6978E-02
321.72	4.3120E-02
321.93	5.6730E-02
322.14	4.7517E-02
322.35	5.8049E-02
322.56	5.8914E-02
322.77	6.3302E-02
322.98	5.1441E-02
323.20	6.2840E-02
323.41	4.8390E-02
323.62	4.8449E-02
323.83	5.7512E-02
324.04	4.9955E-02
324.25	4.9885E-02
324.46	5.5671E-02
324.67	5.7786E-02
324.89	5.4986E-02
325.10	5.3611E-02
325.31	6.6760E-02
325.52	6.0769E-02
325.73	5.4194E-02
325.94	5.7983E-02
326.15	5.1015E-02
326.36	6.8670E-02
326.58	7.2769E-02
326.79	7.0709E-02
327.00	5.0944E-02
327.21	7.0639E-02
327.42	7.0505E-02
327.63	7.0437E-02
327.84	6.6952E-02
328.05	7.4756E-02
328.26	5.6019E-02
328.48	6.8586E-02
328.69	7.3833E-02
328.90	6.7973E-02
329.11	6.8508E-02
329.32	6.9298E-02
329.53	6.3109E-02
329.74	6.8044E-02
329.95	7.5872E-02
330.16	7.2364E-02
330.37	6.7092E-02
330.59	8.5385E-02
330.80	7.4471E-02
331.01	7.5923E-02
331.22	7.4067E-02
331.43	6.5014E-02
331.64	6.4278E-02
331.85	8.1023E-02
332.06	7.8456E-02
332.27	6.6445E-02
332.48	7.8825E-02
332.69	8.3324E-02
332.91	7.7209E-02
333.12	7.5696E-02
333.33	8.9434E-02
333.54	6.8340E-02
333.75	6.3474E-02
333.96	6.8999E-02
334.17	6.7050E-02
334.38	6.8400E-02
334.59	7.5198E-02
334.80	7.6368E-02
335.01	7.4544E-02
335.22	6.9193E-02
335.43	6.6885E-02
335.64	7.0382E-02
335.86	7.3816E-02
336.07	7.3053E-02
336.28	6.0513E-02
336.49	7.3898E-02
336.70	6.3392E-02
336.91	6.3680E-02
337.12	6.1069E-02
337.33	7.6133E-02
337.54	6.6343E-02
337.75	6.4818E-02
337.96	7.5932E-02
338.17	7.5847E-02
338.38	6.4541E-02
338.59	7.8705E-02
338.80	6.2798E-02
339.01	8.1091E-02
339.22	7.9988E-02
339.43	8.0578E-02
339.65	7.4058E-02
339.86	6.9284E-02
340.07	6.8029E-02
340.28	7.6565E-02
340.49	7.6267E-02
340.70	7.7800E-02
340.91	6.8444E-02
341.12	6.4572E-02
341.33	7.5753E-02
341.54	8.0982E-02
341.75	7.2058E-02
341.96	7.4864E-02
342.17	7.7558E-02
342.38	7.0714E-02
342.59	7.3586E-02
342.80	6.5155E-02
343.01	7.1241E-02
343.22	7.0108E-02
343.43	6.7241E-02
343.64	6.3086E-02
343.85	7.1567E-02
344.06	5.8654E-02
344.27	6.9724E-02
344.48	7.8450E-02
344.69	7.0434E-02
344.90	7.2113E-02
345.11	6.8127E-02
345.32	6.6485E-02
345.53	5.7868E-02
345.74	7.3683E-02
345.95	6.0564E-02
346.16	6.9106E-02
346.37	6.9254E-02
346.58	6.9160E-02
346.79	6.3002E-02
347.00	7.3770E-02
347.21	7.4895E-02
347.42	6.6367E-02
347.63	6.0578E-02
347.84	6.9203E-02
348.05	7.4174E-02
348.26	6.8220E-02
348.47	7.1503E-02
348.68	7.0561E-02
348.89	5.9559E-02
349.10	6.8504E-02
349.31	7.2432E-02
349.52	6.7123E-02
349.73	6.9772E-02
349.94	7.0780E-02
350.15	6.4707E-02
350.36	7.9485E-02
350.57	7.6563E-02
350.78	7.7901E-02
350.99	7.8079E-02
351.20	7.2260E-02
351.41	7.8627E-02
351.62	7.4271E-02
351.83	7.5965E-02
352.04	7.5728E-02
352.25	8.1767E-02
352.46	7.7889E-02
352.67	7.4158E-02
352.88	8.7908E-02
353.09	6.5458E-02
353.30	7.6206E-02
353.51	7.7805E-02
353.72	8.6409E-02
353.93	7.6410E-02
354.14	7.2434E-02
354.35	8.6623E-02
354.56	7.7168E-02
354.77	9.0568E-02
354.98	6.9981E-02
355.19	7.6126E-02
355.39	7.8027E-02
355.60	7.5673E-02
355.81	8.0375E-02
356.02	8.3155E-02
356.23	7.0841E-02
356.44	6.7741E-02
356.65	8.1413E-02
356.86	7.4122E-02
357.07	7.3127E-02
357.28	8.1657E-02
357.49	7.7936E-02
357.70	8.2484E-02
357.91	7.1886E-02
358.12	7.1931E-02
358.33	8.1295E-02
358.54	8.3945E-02
358.75	7.8202E-02
358.96	8.4703E-02
359.16	7.1862E-02
359.37	8.8663E-02
359.58	8.4361E-02
359.79	8.1244E-02
360.00	8.1264E-02
360.21	8.3361E-02
360.42	8.1529E-02
360.63	1.0114E-01
360.84	9.2016E-02
361.05	7.7397E-02
361.26	8.7723E-02
361.47	9.6329E-02
361.68	8.7622E-02
361.88	9.3621E-02
362.09	8.7482E-02
362.30	9.4809E-02
362.51	9.1406E-02
362.72	1.0328E-01
362.93	9.4421E-02
363.14	9.7584E-02
363.35	9.4850E-02
363.56	9.3572E-02
363.77	1.0611E-01
363.98	1.0266E-01
364.18	1.0999E-01
364.39	1.0780E-01
364.60	1.0267E-01
364.81	1.0549E-01
365.02	1.0836E-01
365.23	1.1079E-01
365.44	1.1103E-01
365.65	1.0980E-01
365.86	1.0015E-01
366.07	1.1748E-01
366.27	1.1106E-01
366.48	1.1512E-01
366.69	1.1135E-01
366.90	1.1901E-01
367.11	1.1558E-01
367.32	1.1734E-01
367.53	1.1106E-01
367.74	1.0753E-01
367.95	1.0841E-01
368.15	1.1214E-01
368.36	1.1771E-01
368.57	1.0452E-01
368.78	1.2447E-01
368.99	1.1304E-01
369.20	1.1176E-01
369.41	1.1840E-01
369.62	1.1365E-01
369.82	1.2285E-01
370.03	1.1452E-01
370.24	1.1723E-01
370.45	1.1300E-01
370.66	1.0692E-01
370.87	1.0679E-01
371.08	1.0893E-01
371.28	1.0853E-01
371.49	1.0937E-01
371.70	1.0812E-01
371.91	1.0863E-01
372.12	1.0289E-01
372.33	1.0277E-01
372.54	1.0818E-01
372.74	1.0626E-01
372.95	9.4713E-02
373.16	1.0859E-01
373.37	1.1076E-01
373.58	9.5544E-02
373.79	1.0756E-01
374.00	1.0342E-01
374.20	1.1416E-01
374.41	1.1183E-01
374.62	1.0654E-01
374.83	1.0646E-01
375.04	1.0953E-01
375.25	1.1127E-01
375.45	9.6791E-02
375.66	1.1399E-01
375.87	1.1296E-01
376.08	1.1746E-01
376.29	1.1644E-01
376.50	1.1511E-01
376.70	1.1297E-01
376.91	1.1891E-01
377.12	1.1998E-01
377.33	1.0886E-01
377.54	1.1112E-01
377.75	1.2012E-01
377.95	1.1373E-01
378.16	1.1703E-01
378.37	1.1110E-01
378.58	1.2039E-01
378.79	1.0620E-01
379.00	1.2060E-01
379.20	1.1094E-01
379.41	1.1455E-01
379.62	1.1653E-01
379.83	1.1010E-01
380.04	1.1175E-01
380.24	1.0656E-01
380.45	9.9125E-02
380.66	1.0135E-01
380.87	1.0593E-01
381.08	1.0704E-01
381.28	9.8041E-02
381.49	1.0436E-01
381.70	9.6218E-02
381.91	9.9291E-02
382.12	1.0339E-01
382.32	9.7487E-02
382.53	1.0347E-01
382.74	9.5067E-02
382.95	9.8523E-02
383.16	1.0196E-01
383.36	9.0026E-02
383.57	1.0128E-01
383.78	1.0544E-01
383.99	9.7982E-02
384.20	1.0147E-01
384.40	1.0259E-01
384.61	1.0952E-01
384.82	1.1259E-01
385.03	1.0680E-01
385.23	1.0936E-01
385.44	1.1052E-01
385.65	1.1549E-01
385.86	1.0707E-01
386.07	1.2535E-01
386.27	1.0474E-01
386.48	1.1338E-01
386.69	1.1896E-01
386.90	1.0053E-01
387.10	1.1172E-01
387.31	1.1965E-01
387.52	1.1312E-01
387.73	1.1796E-01
387.94	1.2469E-01
388.14	1.1220E-01
388.35	1.1770E-01
388.56	1.3424E-01
388.77	1.2788E-01
388.97	1.2879E-01
389.18	1.3541E-01
389.39	1.2600E-01
389.60	1.2834E-01
389.80	1.3537E-01
390.01	1.3176E-01
390.22	1.3101E-01
390.43	1.1982E-01
390.63	1.2348E-01
390.84	1.2263E-01
391.05	1.3459E-01
391.26	1.2523E-01
391.46	1.2361E-01
391.67	1.2390E-01
391.88	1.1479E-01
392.09	1.1443E-01
392.29	1.2438E-01
392.50	1.1605E-01
392.71	1.1909E-01
392.92	1.2051E-01
393.12	1.1782E-01
393.33	1.2243E-01
393.54	1.1420E-01
393.74	1.0885E-01
393.95	1.1327E-01
394.16	1.2181E-01
394.37	1.1545E-01
394.57	1.1643E-01
394.78	1.2282E-01
394.99	1.1983E-01
395.19	1.1985E-01
395.40	1.1995E-01
395.61	1.2047E-01
395.82	1.2977E-01
396.02	1.2477E-01
396.23	1.3252E-01
396.44	1.3533E-01
396.65	1.3255E-01
396.85	1.4217E-01
397.06	1.4055E-01
397.27	1.4588E-01
397.47	1.5322E-01
397.68	1.4997E-01
397.89	1.4963E-01
398.09	1.5038E-01
398.30	1.5923E-01
398.51	1.5520E-01
398.72	1.6452E-01
398.92	1.7398E-01
399.13	1.7674E-01
399.34	1.8325E-01
399.54	1.8619E-01
399.75	1.8377E-01
399.96	1.7828E-01
400.16	1.7911E-01
400.37	1.8807E-01
400.58	1.8756E-01
400.78	1.9083E-01
400.99	1.8791E-01
401.20	1.9655E-01
401.41	1.9497E-01
401.61	1.8828E-01
401.82	1.9409E-01
402.03	1.8899E-01
402.23	1.8829E-01
402.44	1.9686E-01
402.65	1.9210E-01
402.85	1.9329E-01
403.06	1.9362E-01
403.27	1.9550E-01
403.47	1.9361E-01
403.68	1.8846E-01
403.89	1.9491E-01
404.09	1.8978E-01
404.30	1.8450E-01
404.51	1.9596E-01
404.71	1.9448E-01
404.92	2.0000E-01
405.13	1.8325E-01
405.33	1.8922E-01
405.54	1.9047E-01
405.75	1.9274E-01
405.95	1.9189E-01
406.16	1.8270E-01
406.37	1.9280E-01
406.57	1.9353E-01
406.78	1.9621E-01
406.99	1.9464E-01
407.19	1.9833E-01
407.40	2.0225E-01
407.60	1.9991E-01
407.81	1.9888E-01
408.02	1.9240E-01
408.22	1.9463E-01
408.43	2.0326E-01
408.64	2.0015E-01
408.84	1.9885E-01
409.05	1.9158E-01
409.26	2.0352E-01
409.46	2.0687E-01
409.67	1.9970E-01
409.87	2.0432E-01
410.08	2.0296E-01
410.29	2.1114E-01
410.49	1.9670E-01
410.70	2.0786E-01
410.91	2.0565E-01
411.11	2.1243E-01
411.32	2.0935E-01
411.52	2.0208E-01
411.73	2.1525E-01
411.94	2.1429E-01
412.14	2.1722E-01
412.35	2.1162E-01
412.56	2.1858E-01
412.76	2.1748E-01
412.97	2.1309E-01
413.17	2.1699E-01
413.38	2.2226E-01
413.59	2.1312E-01
413.79	2.1606E-01
414.00	2.1929E-01
414.20	2.2196E-01
414.41	2.1152E-01
414.62	2.1977E-01
414.82	2.1495E-01
415.03	2.0941E-01
415.23	2.1987E-01
415.44	2.1114E-01
415.65	2.1803E-01
415.85	2.1088E-01
416.06	2.1839E-01
416.26	2.1483E-01
416.47	2.1594E-01
416.68	2.2091E-01
416.88	2.2372E-01
417.09	2.0555E-01
417.29	2.1497E-01
417.50	2.1909E-01
417.71	2.1716E-01
417.91	2.1498E-01
418.12	2.1402E-01
418.32	2.2154E-01
418.53	2.2131E-01
418.73	2.1600E-01
418.94	2.1666E-01
419.15	2.1547E-01
419.35	2.2676E-01
419.56	2.2099E-01
419.76	2.1277E-01
419.97	2.2641E-01
420.17	2.2149E-01
420.38	2.1008E-01
420.59	2.2546E-01
420.79	2.2697E-01
421.00	2.1995E-01
421.20	2.1023E-01
421.41	2.1885E-01
421.61	2.1600E-01
421.82	2.2081E-01
422.02	2.1829E-01
422.23	2.0661E-01
422.44	2.2507E-01
422.64	2.1512E-01
422.85	2.1722E-01
423.05	2.1694E-01
423.26	2.1850E-01
423.46	2.1695E-01
423.67	2.1406E-01
423.87	2.1486E-01
424.08	2.1223E-01
424.29	2.1282E-01
424.49	2.2004E-01
424.70	2.0854E-01
424.90	2.1776E-01
425.11	2.1824E-01
425.31	2.1587E-01
425.52	2.1934E-01
425.72	2.1156E-01
425.93	2.1454E-01
426.13	2.0902E-01
426.34	2.1081E-01
426.54	2.0991E-01
426.75	2.1046E-01
426.95	2.0901E-01
427.16	2.0852E-01
427.36	2.0693E-01
427.57	2.0128E-01
427.78	1.9919E-01
427.98	1.9898E-01
428.19	2.0041E-01
428.39	1.9529E-01
428.60	1.9557E-01
428.80	1.9649E-01
429.01	2.0052E-01
429.21	1.8990E-01
429.42	2.0566E-01
429.62	2.0343E-01
429.83	1.9841E-01
430.03	1.9265E-01
430.24	2.0329E-01
430.44	1.9590E-01
430.65	2.0199E-01
430.85	2.0443E-01
431.06	2.0004E-01
431.26	2.1020E-01
431.47	2.0024E-01
431.67	2.1761E-01
431.88	2.1412E-01
432.08	2.1735E-01
432.29	2.1816E-01
432.49	2.1380E-01
432.70	2.1488E-01
432.90	2.2632E-01
433.11	2.2513E-01
433.31	2.1343E-01
433.52	2.2290E-01
433.72	2.2009E-01
433.93	2.2476E-01
434.13	2.2435E-01
434.34	2.3468E-01
434.54	2.2334E-01
434.74	2.2715E-01
434.95	2.2995E-01
435.15	2.2806E-01
435.36	2.3133E-01
435.56	2.2642E-01
435.77	2.3431E-01
435.97	2.2765E-01
436.18	2.4549E-01
436.38	2.3678E-01
436.59	2.3246E-01
436.79	2.3951E-01
437.00	2.3784E-01
437.20	2.3445E-01
437.41	2.3404E-01
437.61	2.3774E-01
437.81	2.3793E-01
438.02	2.3773E-01
438.22	2.4089E-01
438.43	2.3435E-01
438.63	2.4800E-01
438.84	2.3882E-01
439.04	2.4042E-01
439.25	2.4334E-01
439.45	2.3868E-01
439.66	2.4032E-01
439.86	2.4214E-01
440.06	2.5283E-01
440.27	2.4373E-01
440.47	2.4008E-01
440.68	2.5333E-01
440.88	2.5027E-01
441.09	2.5666E-01
441.29	2.5651E-01
441.49	2.5604E-01
441.70	2.6265E-01
441.90	2.5922E-01
442.11	2.6239E-01
442.31	2.6648E-01
442.52	2.6056E-01
442.72	2.6033E-01
442.92	2.5482E-01
443.13	2.6499E-01
443.33	2.5352E-01
443.54	2.6137E-01
443.74	2.6037E-01
443.95	2.6626E-01
444.15	2.6326E-01
444.35	2.6867E-01
444.56	2.6352E-01
444.76	2.5999E-01
444.97	2.7432E-01
445.17	2.6937E-01
445.37	2.7782E-01
445.58	2.6586E-01
445.78	2.6965E-01
445.99	2.6290E-01
446.19	2.6401E-01
446.39	2.6680E-01
446.60	2.6356E-01
446.80	2.6448E-01
447.01	2.7384E-01
447.21	2.8031E-01
447.41	2.7116E-01
447.62	2.8083E-01
447.82	2.7761E-01
448.03	2.8127E-01
448.23	2.8121E-01
448.43	2.8393E-01
448.64	2.8650E-01
448.84	2.8592E-01
449.05	2.8235E-01
449.25	2.8667E-01
449.45	2.8078E-01
449.66	2.8277E-01
449.86	2.8461E-01
450.07	2.7913E-01
450.27	2.8438E-01
450.47	2.8145E-01
450.68	2.8442E-01
450.88	2.8065E-01
451.08	2.8314E-01
451.29	2.8481E-01
451.49	2.8434E-01
451.70	2.8243E-01
451.90	2.8425E-01
452.10	2.8394E-01
452.31	2.7674E-01
452.51	2.8493E-01
452.71	2.8286E-01
452.92	2.8115E-01
453.12	2.8652E-01
453.32	2.8217E-01
453.53	2.7381E-01
453.73	2.7660E-01
453.93	2.7814E-01
454.14	2.8895E-01
454.34	2.8637E-01
454.55	2.8916E-01
454.75	2.8724E-01
454.95	2.8271E-01
455.16	2.9337E-01
455.36	2.8539E-01
455.56	2.9585E-01
455.77	2.9284E-01
455.97	2.9034E-01
456.17	2.8780E-01
456.38	2.9133E-01
456.58	2.9691E-01
456.78	2.8995E-01
456.99	2.8351E-01
457.19	2.8942E-01
457.39	2.8904E-01
457.60	2.9190E-01
457.80	2.9027E-01
458.00	2.8863E-01
458.21	2.9616E-01
458.41	2.9543E-01
458.61	2.9188E-01
458.82	2.9218E-01
459.02	2.8898E-01
459.22	3.0138E-01
459.43	2.9914E-01
459.63	2.9683E-01
459.83	2.9329E-01
460.03	2.9786E-01
460.24	3.0166E-01
460.44	2.9525E-01
460.64	2.9202E-01
460.85	2.9986E-01
461.05	2.9914E-01
461.25	3.0016E-01
461.46	2.9728E-01
461.66	2.9478E-01
461.86	3.0034E-01
462.07	3.0322E-01
462.27	3.0038E-01
462.47	3.0448E-01
462.67	2.9822E-01
462.88	3.0151E-01
463.08	2.9287E-01
463.28	2.9953E-01
463.49	3.0375E-01
463.69	2.9982E-01
463.89	3.0087E-01
464.09	3.0147E-01
464.30	2.9628E-01
464.50	3.0127E-01
464.70	3.0236E-01
464.91	2.9027E-01
465.11	2.9102E-01
465.31	2.9127E-01
465.51	2.9710E-01
465.72	2.9407E-01
465.92	2.9390E-01
466.12	2.8980E-01
466.33	2.9536E-01
466.53	2.9281E-01
466.73	2.8984E-01
466.93	2.9564E-01
467.14	2.8963E-01
467.34	3.0145E-01
467.54	2.9412E-01
467.74	2.9519E-01
467.95	2.9371E-01
468.15	2.9079E-01
468.35	2.9522E-01
468.55	2.9816E-01
468.76	2.9723E-01
468.96	2.8673E-01
469.16	2.9498E-01
469.37	2.9478E-01
469.57	2.9594E-01
469.77	2.9164E-01
469.97	2.9647E-01
470.18	2.9906E-01
470.38	2.9976E-01
470.58	2.9726E-01
470.78	2.9984E-01
470.99	2.9859E-01
471.19	2.9529E-01
471.39	2.9876E-01
471.59	2.9289E-01
471.79	2.9701E-01
472.00	2.9826E-01
472.20	3.0064E-01
472.40	2.9532E-01
472.60	2.9585E-01
472.81	3.0373E-01
473.01	3.0303E-01
473.21	2.9830E-01
473.41	2.9201E-01
473.62	3.0381E-01
473.82	3.0683E-01
474.02	3.0013E-01
474.22	3.0100E-01
474.42	3.1010E-01
474.63	3.0520E-01
474.83	3.0250E-01
475.03	3.0375E-01
475.23	3.0545E-01
475.44	3.0275E-01
475.64	3.0475E-01
475.84	3.0600E-01
476.04	3.0403E-01
476.24	3.0522E-01
476.45	3.0744E-01
476.65	3.0507E-01
476.85	3.0473E-01
477.05	3.0931E-01
477.25	3.1161E-01
477.46	3.0847E-01
477.66	3.0705E-01
477.86	3.1115E-01
478.06	3.1107E-01
478.26	3.1152E-01
478.47	3.0953E-01
478.67	3.1533E-01
478.87	3.0870E-01
479.07	3.0493E-01
479.27	3.0975E-01
479.47	3.1194E-01
479.68	3.1092E-01
479.88	3.1132E-01
480.08	3.1090E-01
480.28	3.1214E-01
480.48	3.1166E-01
480.69	3.1227E-01
480.89	3.0955E-01
481.09	3.1020E-01
481.29	3.1519E-01
481.49	3.0109E-01
481.69	3.1047E-01
481.90	3.0717E-01
482.10	3.0774E-01
482.30	3.1055E-01
482.50	3.0692E-01
482.70	3.0266E-01
482.90	3.0256E-01
483.11	3.0122E-01
483.31	3.0010E-01
483.51	2.9196E-01
483.71	2.9260E-01
483.91	2.9276E-01
484.11	2.9183E-01
484.32	2.9115E-01
484.52	2.9238E-01
484.72	2.9103E-01
484.92	2.8939E-01
485.12	2.8816E-01
485.32	2.8641E-01
485.52	2.8543E-01
485.73	2.8172E-01
485.93	2.8067E-01
486.13	2.8199E-01
486.33	2.8347E-01
486.53	2.8570E-01
486.73	2.8708E-01
486.93	2.8638E-01
487.14	2.9218E-01
487.34	2.9217E-01
487.54	2.9265E-01
487.74	2.9605E-01
487.94	2.8909E-01
488.14	2.9605E-01
488.34	2.9666E-01
488.54	2.9642E-01
488.75	2.9640E-01
488.95	2.9837E-01
489.15	2.9777E-01
489.35	2.9691E-01
489.55	2.9796E-01
489.75	3.0131E-01
489.95	2.9989E-01
490.15	3.0004E-01
490.36	3.0268E-01
490.56	3.0130E-01
490.76	3.0518E-01
490.96	3.0427E-01
491.16	3.0477E-01
491.36	3.0381E-01
491.56	3.0339E-01
491.76	2.9875E-01
491.96	3.0484E-01
492.17	3.0465E-01
492.37	3.0712E-01
492.57	3.0913E-01
492.77	3.0967E-01
492.97	3.1279E-01
493.17	3.1039E-01
493.37	3.1039E-01
493.57	3.1002E-01
493.77	3.1035E-01
493.97	3.1437E-01
494.17	3.1097E-01
494.38	3.1284E-01
494.58	3.1096E-01
494.78	3.1115E-01
494.98	3.1110E-01
495.18	3.1360E-01
495.38	3.1329E-01
495.58	3.1462E-01
495.78	3.1477E-01
495.98	3.1645E-01
496.18	3.1510E-01
496.38	3.1190E-01
496.58	3.0733E-01
496.78	3.1378E-01
496.99	3.0877E-01
497.19	3.1235E-01
497.39	3.1386E-01
497.59	3.1081E-01
497.79	3.0699E-01
497.99	3.0996E-01
498.19	3.1063E-01
498.39	3.1074E-01
498.59	3.0674E-01
498.79	3.0568E-01
498.99	3.0586E-01
499.19	3.0764E-01
499.39	3.0780E-01
499.59	3.0509E-01
499.79	3.0529E-01
499.99	3.0500E-01
500.19	3.0806E-01
500.40	3.0507E-01
500.60	3.0743E-01
500.80	3.0705E-01
501.00	3.0566E-01
501.20	3.0475E-01
501.40	3.0935E-01
501.60	3.0624E-01
501.80	3.0633E-01
502.00	3.0891E-01
502.20	3.0756E-01
502.40	3.0820E-01
502.60	3.0560E-01
502.80	3.1352E-01
503.00	3.1209E-01
503.20	3.1003E-01
503.40	3.0951E-01
503.60	3.1211E-01
503.80	3.1604E-01
504.00	3.1431E-01
504.20	3.1739E-01
504.40	3.1738E-01
504.60	3.2035E-01
504.80	3.2081E-01
505.00	3.2054E-01
505.20	3.2389E-01
505.40	3.2210E-01
505.60	3.2131E-01
505.80	3.2331E-01
506.00	3.2390E-01
506.20	3.2331E-01
506.40	3.2364E-01
506.60	3.2408E-01
506.80	3.2234E-01
507.00	3.2503E-01
507.20	3.2651E-01
507.40	3.2931E-01
507.60	3.2620E-01
507.80	3.2815E-01
508.00	3.2895E-01
508.20	3.3243E-01
508.40	3.3079E-01
508.60	3.2832E-01
508.80	3.2672E-01
509.00	3.3479E-01
509.20	3.3218E-01
509.40	3.3121E-01
509.60	3.3340E-01
509.80	3.3190E-01
510.00	3.3669E-01
510.20	3.3585E-01
510.40	3.3711E-01
510.60	3.3439E-01
510.80	3.3303E-01
511.00	3.3268E-01
511.20	3.3835E-01
511.40	3.3436E-01
511.60	3.3537E-01
511.80	3.3660E-01
512.00	3.3659E-01
512.20	3.3872E-01
512.40	3.3622E-01
512.60	3.3731E-01
512.80	3.3746E-01
513.00	3.3949E-01
513.20	3.3810E-01
513.40	3.3603E-01
513.59	3.3435E-01
513.79	3.3748E-01
513.99	3.3622E-01
514.19	3.3722E-01
514.39	3.3518E-01
514.59	3.3788E-01
514.79	3.3537E-01
514.99	3.3578E-01
515.19	3.3774E-01
515.39	3.3894E-01
515.59	3.3985E-01
515.79	3.3498E-01
515.99	3.4169E-01
516.19	3.4112E-01
516.39	3.4041E-01
516.59	3.4246E-01
516.79	3.4645E-01
516.98	3.4269E-01
517.18	3.4960E-01
517.38	3.5071E-01
517.58	3.5290E-01
517.78	3.5484E-01
517.98	3.5726E-01
518.18	3.6065E-01
518.38	3.6819E-01
518.58	3.6675E-01
518.78	3.6858E-01
518.98	3.7105E-01
519.18	3.7522E-01
519.38	3.8002E-01
519.57	3.8162E-01
519.77	3.8127E-01
519.97	3.8711E-01
520.17	3.8832E-01
520.37	3.9027E-01
520.57	3.9488E-01
520.77	3.9801E-01
520.97	3.9947E-01
521.17	4.0057E-01
521.37	4.0522E-01
521.57	4.0894E-01
521.76	4.0717E-01
521.96	4.1172E-01
522.16	4.1261E-01
522.36	4.1822E-01
522.56	4.1306E-01
522.76	4.1662E-01
522.96	4.2124E-01
523.16	4.1997E-01
523.36	4.2372E-01
523.55	4.2113E-01
523.75	4.2310E-01
523.95	4.2395E-01
524.15	4.2193E-01
524.35	4.2463E-01
524.55	4.2629E-01
524.75	4.2902E-01
524.95	4.3087E-01
525.14	4.2983E-01
525.34	4.2936E-01
525.54	4.2754E-01
525.74	4.3120E-01
525.94	4.3290E-01
526.14	4.3696E-01
526.34	4.3705E-01
526.54	4.4174E-01
526.73	4.3905E-01
526.93	4.4596E-01
527.13	4.4853E-01
527.33	4.5106E-01
527.53	4.5519E-01
527.73	4.5425E-01
527.93	4.5916E-01
528.12	4.5727E-01
528.32	4.6209E-01
528.52	4.6851E-01
528.72	4.7182E-01
528.92	4.7107E-01
529.12	4.7259E-01
529.32	4.7500E-01
529.51	4.7806E-01
529.71	4.7987E-01
529.91	4.8010E-01
530.11	4.8344E-01
530.31	4.8801E-01
530.51	4.8455E-01
530.70	4.8463E-01
530.90	4.8854E-01
531.10	4.8716E-01
531.30	4.8993E-01
531.50	4.8975E-01
531.70	4.9150E-01
531.89	4.8894E-01
532.09	4.9083E-01
532.29	4.9076E-01
532.49	4.9578E-01
532.69	4.9455E-01
532.88	4.9432E-01
533.08	4.9222E-01
533.28	4.9557E-01
533.48	5.0128E-01
533.68	4.9982E-01
533.88	5.0577E-01
534.07	5.0659E-01
534.27	5.0702E-01
534.47	5.1013E-01
534.67	5.0452E-01
534.87	5.1062E-01
535.06	5.1064E-01
535.26	5.0931E-01
535.46	5.0955E-01
535.66	5.1909E-01
535.86	5.1408E-01
536.05	5.1462E-01
536.25	5.1606E-01
536.45	5.1744E-01
536.65	5.1732E-01
536.85	5.1580E-01
537.04	5.1862E-01
537.24	5.2319E-01
537.44	5.1519E-01
537.64	5.1332E-01
537.83	5.2050E-01
538.03	5.2109E-01
538.23	5.2361E-01
538.43	5.2269E-01
538.63	5.1853E-01
538.82	5.2099E-01
539.02	5.2191E-01
539.22	5.2514E-01
539.42	5.2153E-01
539.61	5.2427E-01
539.81	5.2510E-01
540.01	5.2128E-01
540.21	5.2464E-01
540.41	5.2468E-01
540.60	5.2706E-01
540.80	5.2802E-01
541.00	5.2929E-01
541.20	5.3458E-01
541.39	5.3437E-01
541.59	5.3467E-01
541.79	5.3639E-01
541.99	5.4097E-01
542.18	5.3945E-01
542.38	5.4079E-01
542.58	5.4175E-01
542.78	5.4491E-01
542.97	5.4155E-01
543.17	5.4683E-01
543.37	5.4475E-01
543.57	5.5123E-01
543.76	5.5625E-01
543.96	5.5475E-01
544.16	5.5156E-01
544.36	5.5474E-01
544.55	5.6076E-01
544.75	5.5746E-01
544.95	5.6070E-01
545.14	5.5260E-01
545.34	5.6107E-01
545.54	5.5747E-01
545.74	5.5977E-01
545.93	5.6354E-01
546.13	5.6278E-01
546.33	5.6011E-01
546.53	5.5949E-01
546.72	5.6660E-01
546.92	5.6709E-01
547.12	5.6525E-01
547.31	5.6900E-01
547.51	5.6762E-01
547.71	5.7269E-01
547.91	5.7358E-01
548.10	5.6742E-01
548.30	5.7149E-01
548.50	5.7817E-01
548.69	5.7679E-01
548.89	5.7699E-01
549.09	5.7876E-01
549.29	5.7835E-01
549.48	5.8851E-01
549.68	5.7908E-01
549.88	5.8601E-01
550.07	5.8896E-01
550.27	5.8846E-01
550.47	5.7050E-01
550.66	5.9521E-01
550.86	5.8578E-01
551.06	5.9694E-01
551.25	5.9037E-01
551.45	5.9761E-01
551.65	5.9888E-01
551.85	6.0285E-01
552.04	5.9193E-01
552.24	5.9969E-01
552.44	5.9638E-01
552.63	5.9659E-01
552.83	6.0114E-01
553.03	5.9601E-01
553.22	6.0575E-01
553.42	6.0013E-01
553.62	6.0853E-01
553.81	6.0248E-01
554.01	6.0688E-01
554.21	6.0140E-01
554.40	6.0634E-01
554.60	6.0468E-01
554.80	6.0791E-01
554.99	6.0740E-01
555.19	6.0617E-01
555.39	6.0783E-01
555.58	6.0326E-01
555.78	6.0463E-01
555.98	6.0256E-01
556.17	6.0197E-01
556.37	6.0305E-01
556.56	6.0331E-01
556.76	6.0291E-01
556.96	5.9946E-01
557.15	6.0139E-01
557.35	5.9878E-01
557.55	5.9819E-01
557.74	5.9744E-01
557.94	6.0032E-01
558.14	6.0264E-01
558.33	5.9672E-01
558.53	5.9607E-01
558.73	6.0005E-01
558.92	5.9610E-01
559.12	6.0501E-01
559.31	6.0652E-01
559.51	6.1009E-01
559.71	6.0571E-01
559.90	6.0957E-01
560.10	6.1042E-01
560.30	6.1075E-01
560.49	6.0898E-01
560.69	6.1355E-01
560.88	6.1795E-01
561.08	6.0953E-01
561.28	6.1153E-01
561.47	6.1694E-01
561.67	6.1829E-01
561.86	6.1468E-01
562.06	6.1788E-01
562.26	6.2116E-01
562.45	6.1844E-01
562.65	6.2118E-01
562.84	6.1524E-01
563.04	6.1795E-01
563.24	6.1693E-01
563.43	6.2252E-01
563.63	6.2239E-01
563.82	6.1893E-01
564.02	6.2258E-01
564.22	6.2396E-01
564.41	6.1753E-01
564.61	6.2135E-01
564.80	6.2231E-01
565.00	6.1802E-01
565.20	6.2379E-01
565.39	6.1605E-01
565.59	6.1339E-01
565.78	6.1858E-01
565.98	6.1332E-01
566.18	6.2172E-01
566.37	6.1792E-01
566.57	6.1506E-01
566.76	6.1316E-01
566.96	6.1965E-01
567.15	6.1421E-01
567.35	6.2274E-01
567.55	6.1758E-01
567.74	6.1835E-01
567.94	6.1435E-01
568.13	6.1798E-01
568.33	6.2209E-01
568.52	6.2070E-01
568.72	6.1628E-01
568.91	6.1473E-01
569.11	6.1601E-01
569.31	6.2310E-01
569.50	6.1602E-01
569.70	6.2055E-01
569.89	6.1910E-01
570.09	6.1839E-01
570.28	6.1689E-01
570.48	6.2087E-01
570.67	6.2658E-01
570.87	6.1939E-01
571.07	6.2012E-01
571.26	6.2600E-01
571.46	6.2496E-01
571.65	6.2659E-01
571.85	6.2879E-01
572.04	6.2584E-01
572.24	6.3190E-01
572.43	6.2586E-01
572.63	6.3090E-01
572.82	6.2745E-01
573.02	6.3252E-01
573.21	6.2803E-01
573.41	6.3101E-01
573.60	6.3537E-01
573.80	6.3368E-01
573.99	6.3108E-01
574.19	6.3706E-01
574.38	6.3280E-01
574.58	6.3416E-01
574.78	6.2876E-01
574.97	6.3509E-01
575.17	6.3233E-01
575.36	6.2963E-01
575.56	6.2642E-01
575.75	6.3551E-01
575.95	6.3093E-01
576.14	6.2884E-01
576.34	6.3623E-01
576.53	6.3107E-01
576.73	6.3329E-01
576.92	6.2844E-01
577.12	6.3833E-01
577.31	6.2687E-01
577.51	6.3971E-01
577.70	6.3586E-01
577.90	6.3580E-01
578.09	6.3943E-01
578.29	6.3476E-01
578.48	6.4196E-01
578.68	6.3786E-01
578.87	6.4770E-01
579.06	6.3839E-01
579.26	6.4396E-01
579.45	6.4086E-01
579.65	6.5155E-01
579.84	6.4603E-01
580.04	6.5049E-01
580.23	6.5416E-01
580.43	6.4454E-01
580.62	6.5169E-01
580.82	6.5274E-01
581.01	6.5174E-01
581.21	6.5197E-01
581.40	6.5026E-01
581.60	6.5714E-01
581.79	6.5858E-01
581.99	6.5292E-01
582.18	6.5342E-01
582.37	6.5693E-01
582.57	6.5744E-01
582.76	6.6147E-01
582.96	6.6185E-01
583.15	6.6112E-01
583.35	6.6074E-01
583.54	6.6174E-01
583.74	6.6114E-01
583.93	6.5714E-01
584.12	6.5404E-01
584.32	6.6316E-01
584.51	6.5939E-01
584.71	6.5260E-01
584.90	6.5355E-01
585.10	6.5377E-01
585.29	6.5351E-01
585.49	6.5322E-01
585.68	6.5432E-01
585.87	6.5028E-01
586.07	6.4744E-01
586.26	6.4459E-01
586.46	6.4379E-01
586.65	6.4104E-01
586.85	6.4130E-01
587.04	6.3026E-01
587.23	6.3845E-01
587.43	6.3464E-01
587.62	6.2339E-01
587.82	6.3136E-01
588.01	6.2525E-01
588.20	6.2601E-01
588.40	6.1965E-01
588.59	6.2383E-01
588.79	6.2492E-01
588.98	6.2776E-01
589.18	6.2388E-01
589.37	6.2881E-01
589.56	6.2305E-01
589.76	6.2197E-01
589.95	6.3335E-01
590.15	6.3107E-01
590.34	6.2754E-01
590.53	6.3702E-01
590.73	6.3292E-01
590.92	6.3552E-01
591.11	6.4195E-01
591.31	6.4282E-01
591.50	6.4754E-01
591.70	6.4544E-01
591.89	6.5195E-01
592.08	6.4503E-01
592.28	6.4397E-01
592.47	6.5423E-01
592.67	6.5395E-01
592.86	6.5541E-01
593.05	6.4997E-01
593.25	6.5795E-01
593.44	6.5514E-01
593.63	6.6278E-01
593.83	6.5637E-01
594.02	6.6597E-01
594.22	6.6606E-01
594.41	6.7085E-01
594.60	6.6574E-01
594.80	6.6765E-01
594.99	6.6834E-01
595.18	6.6876E-01
595.38	6.6759E-01
595.57	6.7074E-01
595.76	6.7308E-01
595.96	6.7293E-01
596.15	6.6792E-01
596.34	6.8344E-01
596.54	6.8279E-01
596.73	6.8013E-01
596.93	6.8337E-01
597.12	6.8028E-01
597.31	6.8566E-01
597.51	6.8290E-01
597.70	6.8421E-01
597.89	6.8415E-01
598.09	6.8213E-01
598.28	6.9436E-01
598.47	6.8412E-01
598.67	6.8747E-01
598.86	6.8349E-01
599.05	6.9387E-01
599.25	6.9076E-01
599.44	6.9498E-01
599.63	6.9907E-01
599.83	6.9390E-01
600.02	6.9601E-01
600.21	6.9700E-01
600.41	6.9993E-01
600.60	6.9437E-01
600.79	7.0052E-01
600.98	7.0240E-01
601.18	7.1002E-01
601.37	7.0092E-01
601.56	7.0410E-01
601.76	7.1775E-01
601.95	7.0640E-01
602.14	7.1034E-01
602.34	7.1064E-01
602.53	7.1879E-01
602.72	7.1247E-01
602.92	7.1938E-01
603.11	7.1728E-01
603.30	7.2321E-01
603.49	7.1980E-01
603.69	7.2972E-01
603.88	7.2525E-01
604.07	7.2899E-01
604.27	7.2508E-01
604.46	7.1974E-01
604.65	7.2625E-01
604.84	7.2560E-01
605.04	7.2977E-01
605.23	7.2779E-01
605.42	7.2853E-01
605.62	7.3123E-01
605.81	7.2611E-01
606.00	7.2744E-01
606.19	7.3130E-01
606.39	7.3314E-01
606.58	7.2753E-01
606.77	7.2848E-01
606.97	7.2340E-01
607.16	7.3035E-01
607.35	7.3210E-01
607.54	7.2676E-01
607.74	7.3308E-01
607.93	7.3370E-01
608.12	7.2608E-01
608.31	7.2962E-01
608.51	7.3164E-01
608.70	7.2737E-01
608.89	7.2665E-01
609.08	7.2313E-01
609.28	7.2864E-01
609.47	7.2992E-01
609.66	7.3134E-01
609.85	7.3336E-01
610.05	7.3466E-01
610.24	7.2921E-01
610.43	7.3236E-01
610.62	7.3017E-01
610.82	7.2852E-01
611.01	7.3350E-01
611.20	7.3096E-01
611.39	7.3219E-01
611.59	7.3236E-01
611.78	7.3580E-01
611.97	7.3476E-01
612.16	7.4147E-01
612.35	7.3284E-01
612.55	7.3451E-01
612.74	7.3963E-01
612.93	7.3879E-01
613.12	7.3082E-01
613.32	7.3531E-01
613.51	7.3643E-01
613.70	7.3502E-01
613.89	7.3559E-01
614.08	7.3826E-01
614.28	7.3752E-01
614.47	7.3408E-01
614.66	7.3760E-01
614.85	7.4199E-01
615.04	7.4170E-01
615.24	7.4778E-01
615.43	7.4212E-01
615.62	7.3992E-01
615.81	7.4167E-01
616.00	7.3457E-01
616.20	7.4438E-01
616.39	7.4704E-01
616.58	7.4768E-01
616.77	7.4967E-01
616.96	7.6005E-01
617.16	7.6169E-01
617.35	7.6142E-01
617.54	7.5946E-01
617.73	7.5892E-01
617.92	7.6171E-01
618.12	7.6980E-01
618.31	7.6839E-01
618.50	7.7213E-01
618.69	7.6997E-01
618.88	7.8139E-01
619.07	7.7796E-01
619.27	7.8192E-01
619.46	7.8383E-01
619.65	7.9188E-01
619.84	7.8476E-01
620.03	7.8444E-01
620.22	7.9271E-01
620.42	7.7921E-01
620.61	7.9607E-01
620.80	7.9334E-01
620.99	7.9272E-01
621.18	7.9898E-01
621.37	7.9062E-01
621.57	7.8278E-01
621.76	7.9473E-01
621.95	7.9224E-01
622.14	7.8713E-01
622.33	7.8431E-01
622.52	7.8892E-01
622.71	7.9462E-01
622.91	7.9754E-01
623.10	7.9441E-01
623.29	7.9299E-01
623.48	7.8914E-01
623.67	7.9456E-01
623.86	7.9362E-01
624.05	7.9300E-01
624.25	7.8825E-01
624.44	7.9636E-01
624.63	8.0037E-01
624.82	7.9589E-01
625.01	7.9134E-01
625.20	8.0002E-01
625.39	7.8885E-01
625.58	7.9866E-01
625.78	8.0192E-01
625.97	7.8931E-01
626.16	7.9528E-01
626.35	7.9439E-01
626.54	8.0233E-01
626.73	8.0254E-01
626.92	7.9977E-01
627.11	8.0022E-01
627.31	8.0013E-01
627.50	8.0095E-01
627.69	8.0638E-01
627.88	8.0992E-01
628.07	7.9300E-01
628.26	8.0344E-01
628.45	8.0038E-01
628.64	8.0414E-01
628.83	8.0345E-01
629.02	7.9280E-01
629.22	8.1338E-01
629.41	8.0126E-01
629.60	7.9271E-01
629.79	8.0936E-01
629.98	8.0304E-01
630.17	8.0762E-01
630.36	8.0589E-01
630.55	8.0706E-01
630.74	8.0962E-01
630.93	8.1377E-01
631.12	8.0169E-01
631.31	8.0300E-01
631.51	8.1082E-01
631.70	8.0843E-01
631.89	8.0136E-01
632.08	8.0404E-01
632.27	8.0698E-01
632.46	8.0536E-01
632.65	8.0673E-01
632.84	7.9972E-01
633.03	8.1552E-01
633.22	8.0929E-01
633.41	8.1787E-01
633.60	8.1759E-01
633.79	8.1109E-01
633.98	8.0276E-01
634.17	8.1379E-01
634.37	8.1432E-01
634.56	8.2114E-01
634.75	8.0985E-01
634.94	8.2163E-01
635.13	8.1695E-01
635.32	8.2429E-01
635.51	8.2383E-01
635.70	8.1592E-01
635.89	8.3352E-01
636.08	8.2179E-01
636.27	8.1567E-01
636.46	8.2633E-01
636.65	8.2088E-01
636.84	8.1596E-01
637.03	8.2617E-01
637.22	8.2515E-01
637.41	8.2176E-01
637.60	8.2597E-01
637.79	8.2691E-01
637.98	8.2350E-01
638.17	8.2353E-01
638.36	8.1668E-01
638.55	8.1011E-01
638.74	8.1028E-01
638.93	8.1225E-01
639.12	8.1028E-01
639.31	8.1231E-01
639.50	8.0975E-01
639.69	8.0771E-01
639.88	8.1544E-01
640.07	8.0790E-01
640.26	8.1657E-01
640.45	8.1120E-01
640.64	8.1210E-01
640.83	8.1079E-01
641.02	8.1712E-01
641.21	8.0791E-01
641.40	7.9606E-01
641.59	8.0780E-01
641.78	8.0938E-01
641.97	8.0789E-01
642.16	8.1079E-01
642.35	8.0969E-01
642.54	8.0911E-01
642.73	8.0519E-01
642.92	7.8876E-01
643.11	8.0746E-01
643.30	8.0735E-01
643.49	7.9759E-01
643.68	7.9974E-01
643.87	7.9118E-01
644.06	7.9805E-01
644.25	7.9028E-01
644.44	7.9212E-01
644.63	7.8999E-01
644.82	7.8858E-01
645.01	7.9303E-01
645.20	7.9065E-01
645.39	7.8453E-01
645.58	7.8145E-01
645.77	7.8148E-01
645.96	7.8901E-01
646.15	7.8053E-01
646.34	7.8048E-01
646.53	7.7784E-01
646.72	7.7895E-01
646.91	7.7003E-01
647.10	7.8500E-01
647.29	7.7419E-01
647.47	7.7762E-01
647.66	7.7097E-01
647.85	7.6673E-01
648.04	7.6795E-01
648.23	7.6889E-01
648.42	7.8492E-01
648.61	7.6452E-01
648.80	7.7499E-01
648.99	7.7921E-01
649.18	7.6831E-01
649.37	7.7886E-01
649.56	7.7542E-01
649.75	7.7342E-01
649.94	7.8208E-01
650.13	7.8064E-01
650.31	7.8307E-01
650.50	7.7835E-01
650.69	7.8429E-01
650.88	7.8103E-01
651.07	7.8274E-01
651.26	7.8501E-01
651.45	7.9603E-01
651.64	7.8906E-01
651.83	7.8073E-01
652.02	7.8567E-01
652.21	7.8061E-01
652.40	7.7925E-01
652.58	7.9210E-01
652.77	7.7324E-01
652.96	7.6879E-01
653.15	7.7683E-01
653.34	7.7338E-01
653.53	7.7200E-01
653.72	7.6899E-01
653.91	7.5722E-01
654.10	7.5928E-01
654.29	7.5052E-01
654.47	7.6426E-01
654.66	7.4330E-01
654.85	7.4553E-01
655.04	7.3987E-01
655.23	7.4853E-01
655.42	7.3573E-01
655.61	7.4419E-01
655.80	7.4194E-01
655.98	7.4988E-01
656.17	7.4874E-01
656.36	7.5379E-01
656.55	7.4870E-01
656.74	7.6303E-01
656.93	7.6285E-01
657.12	7.6719E-01
657.31	7.6109E-01
657.49	7.8010E-01
657.68	7.7840E-01
657.87	7.6798E-01
658.06	7.9139E-01
658.25	7.8366E-01
658.44	7.9505E-01
658.63	7.9191E-01
658.81	7.9090E-01
659.00	7.9908E-01
659.19	7.9636E-01
659.38	8.1390E-01
659.57	8.1588E-01
659.76	8.0823E-01
659.95	8.2111E-01
660.13	8.0470E-01
660.32	8.1796E-01
660.51	8.1559E-01
660.70	8.2476E-01
660.89	8.1804E-01
661.08	8.2089E-01
661.26	8.1565E-01
661.45	8.2410E-01
661.64	8.1823E-01
661.83	8.1735E-01
662.02	8.1949E-01
662.21	8.2445E-01
662.39	8.2714E-01
662.58	8.1895E-01
662.77	8.3308E-01
662.96	8.2673E-01
663.15	8.1740E-01
663.33	8.3000E-01
663.52	8.2026E-01
663.71	8.2011E-01
663.90	8.2142E-01
664.09	8.1254E-01
664.28	8.1962E-01
664.46	8.1362E-01
664.65	8.1376E-01
664.84	8.0764E-01
665.03	8.1668E-01
665.22	8.2005E-01
665.40	8.1941E-01
665.59	8.1359E-01
665.78	8.1300E-01
665.97	8.1444E-01
666.16	8.2113E-01
666.34	8.2749E-01
666.53	8.1549E-01
666.72	8.2668E-01
666.91	8.1932E-01
667.09	8.2113E-01
667.28	8.2785E-01
667.47	8.2589E-01
667.66	8.2253E-01
667.85	8.2128E-01
668.03	7.9493E-01
668.22	8.2678E-01
668.41	8.2261E-01
668.60	8.0717E-01
668.78	8.2813E-01
668.97	8.2140E-01
669.16	8.1571E-01
669.35	8.2937E-01
669.54	8.1587E-01
669.72	8.3028E-01
669.91	8.2154E-01
670.10	8.2553E-01
670.29	8.2338E-01
670.47	8.2863E-01
670.66	8.3192E-01
670.85	8.2459E-01
671.04	8.1485E-01
671.22	8.1466E-01
671.41	8.2451E-01
671.60	8.2591E-01
671.79	8.2673E-01
671.97	8.2166E-01
672.16	8.3600E-01
672.35	8.2946E-01
672.54	8.3105E-01
672.72	8.2517E-01
672.91	8.1963E-01
673.10	8.2577E-01
673.28	8.2161E-01
673.47	8.2310E-01
673.66	8.2438E-01
673.85	8.3843E-01
674.03	8.3067E-01
674.22	8.2950E-01
674.41	8.2307E-01
674.60	8.2430E-01
674.78	8.1371E-01
674.97	8.2185E-01
675.16	8.4449E-01
675.34	8.3403E-01
675.53	8.2541E-01
675.72	8.1983E-01
675.91	8.4068E-01
676.09	8.3058E-01
676.28	8.3719E-01
676.47	8.3135E-01
676.65	8.1897E-01
676.84	8.2919E-01
677.03	8.3508E-01
677.22	8.2504E-01
677.40	8.3453E-01
677.59	8.3019E-01
677.78	8.2500E-01
677.96	8.2836E-01
678.15	8.3569E-01
678.34	8.4435E-01
678.52	8.2584E-01
678.71	8.2946E-01
678.90	8.3050E-01
679.08	8.3385E-01
679.27	8.2499E-01
679.46	8.4175E-01
679.64	8.3427E-01
679.83	8.2955E-01
680.02	8.3093E-01
680.21	8.1592E-01
680.39	8.4053E-01
680.58	8.3304E-01
680.77	8.2808E-01
680.95	8.3008E-01
681.14	8.1717E-01
681.33	8.2791E-01
681.51	8.3430E-01
681.70	8.3088E-01
681.89	8.3564E-01
682.07	8.2723E-01
682.26	8.1309E-01
682.44	8.3069E-01
682.63	8.2630E-01
682.82	8.2897E-01
683.00	8.0322E-01
683.19	8.1486E-01
683.38	8.1856E-01
683.56	8.1803E-01
683.75	8.0974E-01
683.94	7.9482E-01
684.12	7.9036E-01
684.31	7.9942E-01
684.50	7.9761E-01
684.68	7.8237E-01
684.87	7.7884E-01
685.05	7.7870E-01
685.24	7.6216E-01
685.43	7.6710E-01
685.61	7.6364E-01
685.80	7.5034E-01
685.99	7.5788E-01
686.17	7.4157E-01
686.36	7.5403E-01
686.54	7.5211E-01
686.73	7.4510E-01
686.92	7.4463E-01
687.10	7.3784E-01
687.29	7.4626E-01
687.48	7.3659E-01
687.66	7.5368E-01
687.85	7.3866E-01
688.03	7.4530E-01
688.22	7.3620E-01
688.41	7.5259E-01
688.59	7.3889E-01
688.78	7.5553E-01
688.96	7.6073E-01
689.15	7.7215E-01
689.34	7.4682E-01
689.52	7.7928E-01
689.71	7.7009E-01
689.89	7.7873E-01
690.08	7.8992E-01
690.27	7.8165E-01
690.45	7.7820E-01
690.64	7.7884E-01
690.82	7.7450E-01
691.01	7.8869E-01
691.19	7.8596E-01
691.38	7.9214E-01
691.57	8.0055E-01
691.75	7.8925E-01
691.94	8.0509E-01
692.12	7.9601E-01
692.31	8.0896E-01
692.50	8.0240E-01
692.68	8.1154E-01
692.87	8.2003E-01
693.05	8.1401E-01
693.24	8.0363E-01
693.42	8.1196E-01
693.61	8.2035E-01
693.79	8.2907E-01
693.98	8.1955E-01
694.17	8.3013E-01
694.35	8.4333E-01
694.54	8.4597E-01
694.72	8.4182E-01
694.91	8.4528E-01
695.09	8.4973E-01
695.28	8.5377E-01
695.46	8.5850E-01
695.65	8.6488E-01
695.83	8.6858E-01
696.02	8.7854E-01
696.21	8.8295E-01
696.39	8.7420E-01
696.58	8.8318E-01
696.76	8.6213E-01
696.95	8.7605E-01
697.13	8.8000E-01
697.32	8.8736E-01
697.50	8.8752E-01
697.69	8.9116E-01
697.87	8.9757E-01
698.06	8.9830E-01
698.24	8.8825E-01
698.43	8.9320E-01
698.61	9.1104E-01
698.80	9.0026E-01
698.98	9.0947E-01
699.17	8.8301E-01
699.35	9.0423E-01
699.54	8.9877E-01
699.72	8.8671E-01
699.91	9.1087E-01
700.09	9.1250E-01
700.28	9.1515E-01
700.46	9.1804E-01
700.65	9.1483E-01
700.83	9.2460E-01
701.02	9.3192E-01
701.20	9.0706E-01
701.39	9.4024E-01
701.57	9.3455E-01
701.76	9.2463E-01
701.94	9.3686E-01
702.13	9.4369E-01
702.31	9.2379E-01
702.50	9.7214E-01
702.68	9.6630E-01
702.87	9.7537E-01
703.05	9.8058E-01
703.24	9.7633E-01
703.42	9.5154E-01
703.61	9.8991E-01
703.79	9.9835E-01
703.98	9.7867E-01
704.16	9.9077E-01
704.35	9.8584E-01
704.53	9.9611E-01
704.72	9.9887E-01
704.90	1.0046E00
705.08	9.9314E-01
705.27	1.0197E00
705.45	1.0163E00
705.64	1.0245E00
705.82	1.0227E00
706.01	1.0243E00
706.19	1.0195E00
706.38	1.0275E00
706.56	1.0447E00
706.75	1.0425E00
706.93	1.0395E00
707.11	1.0272E00
707.30	1.0500E00
707.48	1.0479E00
707.67	1.0378E00
707.85	1.0467E00
708.04	1.0568E00
708.22	1.0581E00
708.40	1.0511E00
708.59	1.0476E00
708.77	1.0719E00
708.96	1.0660E00
709.14	1.0735E00
709.33	1.0704E00
709.51	1.0816E00
709.69	1.0814E00
709.88	1.0866E00
710.06	1.0852E00
710.25	1.0735E00
710.43	1.0863E00
710.62	1.0963E00
710.80	1.0868E00
710.98	1.0933E00
711.17	1.0894E00
711.35	1.0973E00
711.54	1.1023E00
711.72	1.0901E00
711.90	1.1048E00
712.09	1.1050E00
712.27	1.0883E00
712.46	1.1019E00
712.64	1.0888E00
712.82	1.1100E00
713.01	1.1096E00
713.19	1.1061E00
713.37	1.0941E00
713.56	1.0894E00
713.74	1.0995E00
713.93	1.0833E00
714.11	1.0718E00
714.29	1.0529E00
714.48	1.0698E00
714.66	1.0634E00
714.85	1.0460E00
715.03	1.0426E00
715.21	1.0308E00
715.40	1.0130E00
715.58	1.0075E00
715.76	9.8885E-01
715.95	9.8826E-01
716.13	9.9560E-01
716.31	9.7654E-01
716.50	9.6557E-01
716.68	9.4812E-01
716.87	9.5165E-01
717.05	9.4505E-01
717.23	9.2295E-01
717.42	9.2932E-01
717.60	9.1893E-01
717.78	9.2440E-01
717.97	9.2409E-01
718.15	9.1821E-01
718.33	9.1264E-01
718.52	9.2340E-01
718.70	9.2982E-01
718.88	9.1803E-01
719.07	9.5146E-01
719.25	9.3652E-01
719.43	9.4864E-01
719.62	9.4823E-01
719.80	9.5293E-01
719.98	9.7489E-01
720.17	9.7141E-01
720.35	9.7562E-01
720.53	9.9228E-01
720.72	1.0023E00
720.90	9.9509E-01
721.08	9.9474E-01
721.27	1.0026E00
721.45	1.0049E00
721.63	1.0045E00
721.82	1.0148E00
722.00	1.0072E00
722.18	1.0085E00
722.36	1.0248E00
722.55	1.0196E00
722.73	1.0221E00
722.91	1.0195E00
723.10	1.0299E00
723.28	1.0186E00
723.46	9.9519E-01
723.65	1.0129E00
723.83	1.0134E00
724.01	1.0090E00
724.19	1.0197E00
724.38	1.0217E00
724.56	1.0285E00
724.74	1.0360E00
724.93	1.0100E00
725.11	1.0161E00
725.29	1.0345E00
725.47	1.0348E00
725.66	1.0365E00
725.84	1.0325E00
726.02	1.0385E00
726.21	1.0542E00
726.39	1.0418E00
726.57	1.0459E00
726.75	1.0420E00
726.94	1.0583E00
727.12	1.0465E00
727.30	1.0448E00
727.48	1.0404E00
727.67	1.0605E00
727.85	1.0537E00
728.03	1.0642E00
728.21	1.0777E00
728.40	1.0636E00
728.58	1.0877E00
728.76	1.0821E00
728.94	1.0951E00
729.13	1.1083E00
729.31	1.0940E00
729.49	1.1115E00
729.67	1.1171E00
729.86	1.1259E00
730.04	1.1166E00
730.22	1.1456E00
730.40	1.1507E00
730.59	1.1590E00
730.77	1.1716E00
730.95	1.1931E00
731.13	1.1947E00
731.31	1.2067E00
731.50	1.1959E00
731.68	1.2334E00
731.86	1.2286E00
732.04	1.2453E00
732.23	1.2648E00
732.41	1.2636E00
732.59	1.2761E00
732.77	1.2837E00
732.95	1.2898E00
733.14	1.2884E00
733.32	1.3131E00
733.50	1.3087E00
733.68	1.3138E00
733.86	1.3162E00
734.05	1.3278E00
734.23	1.3351E00
734.41	1.3148E00
734.59	1.3307E00
734.77	1.3396E00
734.96	1.3204E00
735.14	1.3516E00
735.32	1.3507E00
735.50	1.3518E00
735.68	1.3727E00
735.87	1.3619E00
736.05	1.3847E00
736.23	1.3500E00
736.41	1.3816E00
736.59	1.3776E00
736.77	1.3751E00
736.96	1.3755E00
737.14	1.3649E00
737.32	1.3928E00
737.50	1.4014E00
737.68	1.3986E00
737.87	1.4090E00
738.05	1.4230E00
738.23	1.3936E00
738.41	1.4110E00
738.59	1.4190E00
738.77	1.4279E00
738.95	1.4428E00
739.14	1.4188E00
739.32	1.4260E00
739.50	1.4528E00
739.68	1.4309E00
739.86	1.4439E00
740.04	1.4432E00
740.23	1.4300E00
740.41	1.4587E00
740.59	1.4647E00
740.77	1.4749E00
740.95	1.4682E00
741.13	1.4653E00
741.31	1.4631E00
741.50	1.4704E00
741.68	1.4678E00
741.86	1.4694E00
742.04	1.4913E00
742.22	1.4982E00
742.40	1.4927E00
742.58	1.5018E00
742.76	1.5087E00
742.95	1.4838E00
743.13	1.5186E00
743.31	1.5130E00
743.49	1.5102E00
743.67	1.5301E00
743.85	1.5254E00
744.03	1.5151E00
744.21	1.5248E00
744.39	1.5112E00
744.58	1.5334E00
744.76	1.5322E00
744.94	1.5463E00
745.12	1.5363E00
745.30	1.5252E00
745.48	1.5422E00
745.66	1.5463E00
745.84	1.5249E00
746.02	1.5269E00
746.20	1.5383E00
746.38	1.5479E00
746.57	1.5640E00
746.75	1.5248E00
746.93	1.5525E00
747.11	1.5334E00
747.29	1.5448E00
747.47	1.5567E00
747.65	1.5520E00
747.83	1.5277E00
748.01	1.5489E00
748.19	1.5509E00
748.37	1.5501E00
748.55	1.5512E00
748.73	1.5413E00
748.92	1.5525E00
749.10	1.5411E00
749.28	1.5616E00
749.46	1.5491E00
749.64	1.5427E00
749.82	1.5498E00
750.00	1.5635E00
750.18	1.5588E00
750.36	1.5410E00
750.54	1.5629E00
750.72	1.5750E00
750.90	1.5751E00
751.08	1.5657E00
751.26	1.5796E00
751.44	1.5819E00
751.62	1.5945E00
751.80	1.5829E00
751.98	1.5933E00
752.16	1.5996E00
752.34	1.6043E00
752.52	1.6110E00
752.71	1.5861E00
752.89	1.5834E00
753.07	1.6174E00
753.25	1.5887E00
753.43	1.6238E00
753.61	1.6045E00
753.79	1.6349E00
753.97	1.6284E00
754.15	1.6360E00
754.33	1.6475E00
754.51	1.6494E00
754.69	1.6542E00
754.87	1.6443E00
755.05	1.6496E00
755.23	1.6639E00
755.41	1.6744E00
755.59	1.5900E00
755.77	1.6345E00
755.95	1.6268E00
756.13	1.5939E00
756.31	1.6164E00
756.49	1.6035E00
756.67	1.5729E00
756.85	1.5519E00
757.03	1.5235E00
757.21	1.5041E00
757.39	1.4852E00
757.57	1.4643E00
757.75	1.4118E00
757.93	1.3612E00
758.11	1.3428E00
758.29	1.3129E00
758.47	1.2702E00
758.65	1.2499E00
758.83	1.2478E00
759.01	1.2044E00
759.18	1.1655E00
759.36	1.1095E00
759.54	1.1118E00
759.72	1.0704E00
759.90	1.0662E00
760.08	1.0489E00
760.26	1.0389E00
760.44	1.0065E00
760.62	9.7989E-01
760.80	9.7619E-01
760.98	1.0097E00
761.16	1.0064E00
761.34	9.9138E-01
761.52	1.0176E00
761.70	9.9110E-01
761.88	9.9990E-01
762.06	1.0076E00
762.24	1.0110E00
762.42	1.0227E00
762.60	1.0299E00
762.78	1.0490E00
762.95	1.0547E00
763.13	1.0853E00
763.31	1.1084E00
763.49	1.1138E00
763.67	1.1409E00
763.85	1.1410E00
764.03	1.1950E00
764.21	1.1979E00
764.39	1.2383E00
764.57	1.2801E00
764.75	1.2906E00
764.93	1.3477E00
765.11	1.3398E00
765.28	1.3893E00
765.46	1.4063E00
765.64	1.4217E00
765.82	1.4574E00
766.00	1.4874E00
766.18	1.5087E00
766.36	1.5302E00
766.54	1.5451E00
766.72	1.5708E00
766.90	1.6192E00
767.07	1.5940E00
767.25	1.6308E00
767.43	1.6515E00
767.61	1.6795E00
767.79	1.6953E00
767.97	1.6985E00
768.15	1.6991E00
768.33	1.6974E00
768.51	1.7292E00
768.68	1.7374E00
768.86	1.7316E00
769.04	1.7442E00
769.22	1.7873E00
769.40	1.7858E00
769.58	1.7732E00
769.76	1.8138E00
769.94	1.8126E00
770.11	1.7909E00
770.29	1.8091E00
770.47	1.8057E00
770.65	1.8111E00
770.83	1.8085E00
771.01	1.8262E00
771.19	1.8241E00
771.36	1.8050E00
771.54	1.8302E00
771.72	1.8164E00
771.90	1.7988E00
772.08	1.8228E00
772.26	1.8400E00
772.44	1.8018E00
772.61	1.8207E00
772.79	1.7937E00
772.97	1.8217E00
773.15	1.8386E00
773.33	1.7978E00
773.51	1.8227E00
773.68	1.7979E00
773.86	1.7857E00
774.04	1.7964E00
774.22	1.7777E00
774.40	1.7899E00
774.58	1.8021E00
774.75	1.7926E00
774.93	1.7634E00
775.11	1.7990E00
775.29	1.7709E00
775.47	1.7525E00
775.64	1.7831E00
775.82	1.7661E00
776.00	1.7721E00
776.18	1.7490E00
776.36	1.7503E00
776.53	1.7850E00
776.71	1.7470E00
776.89	1.7393E00
777.07	1.7559E00
777.25	1.7470E00
777.42	1.7441E00
777.60	1.7262E00
777.78	1.7456E00
777.96	1.7320E00
778.14	1.7481E00
778.31	1.7295E00
778.49	1.6982E00
778.67	1.7052E00
778.85	1.7151E00
779.03	1.7274E00
779.20	1.7237E00
779.38	1.7137E00
779.56	1.6929E00
779.74	1.7191E00
779.91	1.7009E00
780.09	1.6948E00
780.27	1.6748E00
780.45	1.6865E00
780.62	1.6999E00
780.80	1.7046E00
780.98	1.6710E00
781.16	1.6554E00
781.34	1.6891E00
781.51	1.6911E00
781.69	1.6920E00
781.87	1.6823E00
782.05	1.6705E00
782.22	1.6732E00
782.40	1.6594E00
782.58	1.6660E00
782.76	1.6438E00
782.93	1.6652E00
783.11	1.6801E00
783.29	1.6451E00
783.47	1.6458E00
783.64	1.6512E00
783.82	1.6335E00
784.00	1.6096E00
784.17	1.6295E00
784.35	1.6325E00
784.53	1.6212E00
784.71	1.6309E00
784.88	1.6128E00
785.06	1.6398E00
785.24	1.6112E00
785.42	1.6260E00
785.59	1.6124E00
785.77	1.5763E00
785.95	1.5866E00
786.12	1.5639E00
786.30	1.5817E00
786.48	1.5726E00
786.65	1.5584E00
786.83	1.5602E00
787.01	1.5600E00
787.19	1.5484E00
787.36	1.5520E00
787.54	1.5386E00
787.72	1.5407E00
787.89	1.5336E00
788.07	1.5227E00
788.25	1.5133E00
788.42	1.5048E00
788.60	1.5259E00
788.78	1.5007E00
788.96	1.4996E00
789.13	1.4787E00
789.31	1.4824E00
789.49	1.4807E00
789.66	1.4970E00
789.84	1.4721E00
790.02	1.4450E00
790.19	1.4659E00
790.37	1.4750E00
790.55	1.4625E00
790.72	1.4645E00
790.90	1.4866E00
791.08	1.4522E00
791.25	1.4549E00
791.43	1.4586E00
791.61	1.4434E00
791.78	1.4396E00
791.96	1.4134E00
792.14	1.4361E00
792.31	1.4480E00
792.49	1.4036E00
792.67	1.4542E00
792.84	1.4179E00
793.02	1.4202E00
793.19	1.4099E00
793.37	1.4362E00
793.55	1.4357E00
793.72	1.4257E00
793.90	1.3956E00
794.08	1.4143E00
794.25	1.4178E00
794.43	1.3974E00
794.61	1.4109E00
794.78	1.4072E00
794.96	1.3828E00
795.13	1.4046E00
795.31	1.4093E00
795.49	1.3807E00
795.66	1.4000E00
795.84	1.3900E00
796.01	1.3967E00
796.19	1.3837E00
796.37	1.4039E00
796.54	1.3954E00
796.72	1.4018E00
796.90	1.3866E00
797.07	1.3662E00
797.25	1.3845E00
797.42	1.3988E00
797.60	1.3943E00
797.78	1.3808E00
797.95	1.3631E00
798.13	1.3491E00
798.30	1.3734E00
798.48	1.3671E00
798.66	1.3867E00
798.83	1.3482E00
799.01	1.3706E00
799.18	1.3534E00
799.36	1.3795E00
799.53	1.3260E00
799.71	1.3640E00
799.89	1.3409E00
800.06	1.3399E00
800.24	1.3417E00
800.41	1.3110E00
800.59	1.3527E00
800.76	1.3154E00
800.94	1.3156E00
801.12	1.3382E00
801.29	1.3311E00
801.47	1.3400E00
801.64	1.3089E00
801.82	1.3360E00
801.99	1.3338E00
802.17	1.3326E00
802.34	1.3216E00
802.52	1.3193E00
802.70	1.3267E00
802.87	1.2994E00
803.05	1.2864E00
803.22	1.3338E00
803.40	1.3090E00
803.57	1.3101E00
803.75	1.3359E00
803.92	1.3158E00
804.10	1.2850E00
804.27	1.2896E00
804.45	1.3048E00
804.63	1.2953E00
804.80	1.2847E00
804.98	1.3042E00
805.15	1.2693E00
805.33	1.3200E00
805.50	1.3236E00
805.68	1.3144E00
805.85	1.3235E00
806.03	1.3025E00
806.20	1.3059E00
806.38	1.2562E00
806.55	1.2677E00
806.73	1.3176E00
806.90	1.2859E00
807.08	1.2745E00
807.25	1.2453E00
807.43	1.2749E00
807.60	1.2862E00
807.78	1.2551E00
807.95	1.2283E00
808.13	1.2431E00
808.30	1.2343E00
808.48	1.2651E00
808.65	1.2483E00
808.83	1.2781E00
809.00	1.2474E00
809.18	1.2767E00
809.35	1.2268E00
809.53	1.2597E00
809.70	1.2402E00
809.88	1.2395E00
810.05	1.2303E00
810.23	1.2424E00
810.40	1.2247E00
810.57	1.2173E00
810.75	1.1905E00
810.92	1.1853E00
811.10	1.1828E00
811.27	1.1536E00
811.45	1.1637E00
811.62	1.1479E00
811.80	1.1288E00
811.97	1.1453E00
812.15	1.1418E00
812.32	1.1352E00
812.50	1.0852E00
812.67	1.1464E00
812.84	1.0787E00
813.02	1.0964E00
813.19	1.0845E00
813.37	1.0797E00
813.54	1.0479E00
813.72	1.0514E00
813.89	1.0202E00
814.07	1.0348E00
814.24	1.0393E00
814.41	1.0394E00
814.59	9.9979E-01
814.76	9.9184E-01
814.94	1.0090E00
815.11	1.0129E00
815.29	9.4478E-01
815.46	9.5234E-01
815.63	9.6358E-01
815.81	9.6109E-01
815.98	9.0988E-01
816.16	9.1655E-01
816.33	9.5567E-01
816.50	9.6829E-01
816.68	9.4806E-01
816.85	9.2938E-01
817.03	9.5045E-01
817.20	9.3849E-01
817.37	9.5731E-01
817.55	9.3635E-01
817.72	9.4823E-01
817.90	9.1464E-01
818.07	9.3994E-01
818.24	9.0755E-01
818.42	9.2441E-01
818.59	9.2415E-01
818.77	9.2610E-01
818.94	9.5568E-01
819.11	9.1980E-01
819.29	9.6202E-01
819.46	9.5651E-01
819.64	9.1833E-01
819.81	9.7921E-01
819.98	9.7085E-01
820.16	9.3647E-01
820.33	9.6073E-01
820.50	9.5413E-01
820.68	9.2833E-01
820.85	9.5150E-01
821.02	9.3992E-01
821.20	9.1599E-01
821.37	9.4325E-01
821.55	8.9865E-01
821.72	9.2705E-01
821.89	9.3041E-01
822.07	9.4947E-01
822.24	9.4706E-01
822.41	8.9574E-01
822.59	9.6869E-01
822.76	9.6416E-01
822.93	9.2341E-01
823.11	9.3844E-01
823.28	9.5289E-01
823.45	9.3216E-01
823.63	9.3691E-01
823.80	9.6204E-01
823.97	9.0010E-01
824.15	9.6929E-01
824.32	9.4031E-01
824.49	9.9257E-01
824.67	9.4860E-01
824.84	9.6955E-01
825.01	9.7028E-01
825.19	9.7455E-01
825.36	9.7379E-01
825.53	9.9826E-01
825.71	9.8767E-01
825.88	9.9208E-01
826.05	9.5216E-01
826.23	9.7927E-01
826.40	9.6061E-01
826.57	9.6303E-01
826.75	9.4826E-01
826.92	9.2986E-01
827.09	9.2865E-01
827.26	9.8847E-01
827.44	9.6110E-01
827.61	9.9133E-01
827.78	9.6947E-01
827.96	9.2236E-01
828.13	9.8814E-01
828.30	9.6692E-01
828.48	9.5215E-01
828.65	9.4334E-01
828.82	9.4759E-01
828.99	9.4626E-01
829.17	9.5119E-01
829.34	9.0091E-01
829.51	9.4631E-01
829.68	9.8115E-01
829.86	9.7126E-01
830.03	9.4821E-01
830.20	9.6165E-01
830.38	9.5053E-01
830.55	9.2366E-01
830.72	9.5907E-01
830.89	9.1644E-01
831.07	9.1764E-01
831.24	9.1754E-01
831.41	9.3232E-01
831.58	9.5898E-01
831.76	9.8455E-01
831.93	9.6262E-01
832.10	9.6281E-01
832.27	9.1686E-01
832.45	9.1690E-01
832.62	9.5862E-01
832.79	9.3776E-01
832.96	9.6305E-01
833.14	9.1526E-01
833.31	9.8201E-01
833.48	9.5554E-01
833.65	9.3683E-01
833.83	9.8830E-01
834.00	9.9438E-01
834.17	9.5852E-01
834.34	9.8037E-01
834.51	9.6336E-01
834.69	9.4732E-01
834.86	9.9275E-01
835.03	9.5842E-01
835.20	9.9013E-01
835.38	9.6629E-01
835.55	9.7479E-01
835.72	9.5864E-01
835.89	1.0258E00
836.06	9.5984E-01
836.24	9.5755E-01
836.41	9.3860E-01
836.58	9.9667E-01
836.75	9.9226E-01
836.92	9.8133E-01
837.10	9.5460E-01
837.27	9.7365E-01
837.44	9.5762E-01
837.61	1.0144E00
837.78	9.6849E-01
837.96	9.9329E-01
838.13	9.7929E-01
838.30	1.0055E00
838.47	9.9132E-01
838.64	9.8177E-01
838.82	9.7764E-01
838.99	1.0293E00
839.16	9.7458E-01
839.33	9.8267E-01
839.50	1.0257E00
839.67	1.0023E00
839.85	9.5290E-01
840.02	9.9563E-01
840.19	9.7517E-01
840.36	1.0207E00
840.53	9.6427E-01
840.70	9.5891E-01
840.88	1.0110E00
841.05	1.0216E00
841.22	9.9398E-01
841.39	9.9324E-01
841.56	9.9897E-01
841.73	9.8811E-01
841.91	1.0110E00
842.08	1.0064E00
842.25	9.9833E-01
842.42	1.0042E00
842.59	9.8966E-01
842.76	1.0358E00
842.93	9.8899E-01
843.11	1.0031E00
843.28	9.8516E-01
843.45	9.8914E-01
843.62	9.5430E-01
843.79	9.6398E-01
843.96	1.0139E00
844.13	9.8412E-01
844.30	9.7957E-01
844.48	1.0096E00
844.65	9.4915E-01
844.82	9.2748E-01
844.99	9.6006E-01
845.16	9.6026E-01
845.33	9.6723E-01
845.50	9.6614E-01
845.67	9.3153E-01
845.84	9.6840E-01
846.02	9.4873E-01
846.19	9.6831E-01
846.36	9.7010E-01
846.53	1.0146E00
846.70	9.7745E-01
846.87	9.2436E-01
847.04	9.7888E-01
847.21	9.7450E-01
847.38	9.7130E-01
847.55	9.7057E-01
847.73	9.3663E-01
847.90	9.5454E-01
848.07	9.2236E-01
848.24	9.3600E-01
848.41	9.2259E-01
848.58	1.0178E00
848.75	9.3875E-01
848.92	9.9240E-01
849.09	9.4596E-01
849.26	9.2974E-01
849.43	9.1124E-01
849.60	9.3615E-01
849.77	9.6186E-01
849.94	8.4485E-01
850.12	9.6169E-01
850.29	9.3744E-01
850.46	9.2569E-01
850.63	9.1299E-01
850.80	9.3809E-01
850.97	9.3568E-01
851.14	8.9224E-01
851.31	8.5852E-01
851.48	8.9653E-01
851.65	9.0927E-01
851.82	9.3791E-01
851.99	9.2293E-01
852.16	8.4903E-01
852.33	9.0709E-01
852.50	8.7959E-01
852.67	8.8591E-01
852.84	8.9709E-01
853.01	8.7131E-01
853.18	8.9582E-01
853.35	8.5117E-01
853.52	9.2449E-01
853.69	8.7012E-01
853.86	8.3483E-01
854.03	8.2767E-01
854.21	8.8234E-01
854.38	8.6704E-01
854.55	8.8810E-01
854.72	8.9512E-01
854.89	8.3615E-01
855.06	7.9414E-01
855.23	8.5515E-01
855.40	9.0046E-01
855.57	8.2102E-01
855.74	8.3702E-01
855.91	8.5125E-01
856.08	8.2053E-01
856.25	8.6003E-01
856.42	8.4975E-01
856.59	8.4615E-01
856.76	8.6029E-01
856.93	8.5748E-01
857.10	8.5137E-01
857.27	9.0531E-01
857.44	8.7078E-01
857.61	8.6554E-01
857.77	8.2382E-01
857.94	8.2853E-01
858.11	8.2315E-01
858.28	8.8960E-01
858.45	8.2025E-01
858.62	8.6459E-01
858.79	8.3934E-01
858.96	8.3865E-01
859.13	8.4472E-01
859.30	8.7523E-01
859.47	8.3342E-01
859.64	7.9050E-01
859.81	8.6953E-01
859.98	8.6981E-01
860.15	8.4005E-01
860.32	8.2038E-01
860.49	9.1341E-01
860.66	8.5420E-01
860.83	8.6620E-01
861.00	8.5177E-01
861.17	8.6169E-01
861.34	8.6752E-01
861.51	7.8273E-01
861.68	8.6465E-01
861.84	8.4698E-01
862.01	8.1195E-01
862.18	8.2460E-01
862.35	8.5076E-01
862.52	8.5242E-01
862.69	8.3002E-01
862.86	8.4883E-01
863.03	8.6146E-01
863.20	8.3882E-01
863.37	8.4772E-01
863.54	8.0324E-01
863.71	8.0496E-01
863.88	8.2377E-01
864.05	8.1616E-01
864.21	8.4147E-01
864.38	7.8238E-01
864.55	7.6620E-01
864.72	8.4809E-01
864.89	8.0103E-01
865.06	8.3837E-01
865.23	7.9084E-01
865.40	7.6148E-01
865.57	8.3342E-01
865.74	7.9939E-01
865.90	8.0694E-01
866.07	8.0249E-01
866.24	7.4515E-01
866.41	7.3225E-01
866.58	7.5273E-01
866.75	7.6269E-01
866.92	7.6703E-01
867.09	7.6583E-01
867.26	7.6952E-01
867.42	7.3043E-01
867.59	7.0157E-01
867.76	7.7843E-01
867.93	7.4267E-01
868.10	7.5864E-01
868.27	6.8611E-01
868.44	7.6018E-01
868.60	7.7386E-01
868.77	7.6373E-01
868.94	7.4377E-01
869.11	7.4350E-01
869.28	7.8254E-01
869.45	6.9695E-01
869.62	7.6569E-01
869.78	7.4599E-01
869.95	7.0697E-01
870.12	7.3071E-01
870.29	7.5625E-01
870.46	7.6718E-01
870.63	7.2864E-01
870.80	6.9154E-01
870.96	7.2682E-01
871.13	7.1789E-01
871.30	7.5677E-01
871.47	7.6185E-01
871.64	7.5850E-01
871.81	6.6016E-01
871.97	7.8221E-01
872.14	6.9520E-01
872.31	6.8073E-01
872.48	7.1558E-01
872.65	7.5914E-01
872.81	7.1805E-01
872.98	7.7662E-01
873.15	7.5444E-01
873.32	7.5287E-01
873.49	7.2021E-01
873.66	7.4787E-01
873.82	7.2269E-01
873.99	6.9325E-01
874.16	7.3109E-01
874.33	7.0492E-01
874.50	7.4281E-01
874.66	7.1535E-01
874.83	7.2354E-01
875.00	7.1320E-01
875.17	6.4851E-01
875.34	7.4026E-01
875.50	6.9586E-01
875.67	6.7786E-01
875.84	6.9109E-01
876.01	6.7327E-01
876.17	6.5220E-01
876.34	6.5521E-01
876.51	7.3412E-01
876.68	7.1061E-01
876.85	6.9560E-01
877.01	7.1579E-01
877.18	6.6814E-01
877.35	6.8162E-01
877.52	6.8044E-01
877.68	7.0474E-01
877.85	6.6682E-01
878.02	6.8203E-01
878.19	6.6181E-01
878.35	6.8073E-01
878.52	6.7457E-01
878.69	6.8413E-01
878.86	6.3624E-01
879.02	6.6066E-01
879.19	6.2214E-01
879.36	6.4748E-01
879.53	5.9539E-01
879.69	6.4421E-01
879.86	6.9430E-01
880.03	6.8134E-01
880.20	6.3383E-01
880.36	6.9090E-01
880.53	6.2325E-01
880.70	6.9497E-01
880.87	6.4852E-01
881.03	6.4581E-01
881.20	5.8789E-01
881.37	6.3418E-01
881.54	6.5051E-01
881.70	6.8402E-01
881.87	6.2374E-01
882.04	6.2529E-01
882.20	6.3206E-01
882.37	5.8374E-01
882.54	6.4574E-01
882.71	6.4190E-01
882.87	6.7744E-01
883.04	6.1888E-01
883.21	6.1516E-01
883.37	5.9809E-01
883.54	6.2051E-01
883.71	6.0423E-01
883.87	5.7854E-01
884.04	6.5161E-01
884.21	5.9873E-01
884.38	5.7687E-01
884.54	6.5833E-01
884.71	6.5911E-01
884.88	6.0204E-01
885.04	6.2265E-01
885.21	5.8588E-01
885.38	5.8709E-01
885.54	6.7504E-01
885.71	5.9324E-01
885.88	6.2230E-01
886.04	6.1010E-01
886.21	6.0937E-01
886.38	5.8512E-01
886.54	5.9153E-01
886.71	5.6219E-01
886.88	6.3560E-01
887.04	5.3855E-01
887.21	5.7485E-01
887.38	6.1805E-01
887.54	5.4867E-01
887.71	5.5815E-01
887.88	5.3810E-01
888.04	6.2543E-01
888.21	5.5339E-01
888.38	5.7375E-01
888.54	5.8472E-01
888.71	5.6605E-01
888.87	5.5933E-01
889.04	5.5933E-01
>>>>>End Processed Spectral Data<<<<<
