SpectraSuite Data File
++++++++++++++++++++++++++++++++++++
Date: Wed Jul 25 11:01:23 HST 2007
User: guest
Dark Spectrum Present: Yes
Reference Spectrum Present: No
Number of Sampled Component Spectra: 1
Spectrometers: USB4E01242
Integration Time (usec): 20000 (USB4E01242)
Spectra Averaged: 1 (USB4E01242)
Boxcar Smoothing: 10 (USB4E01242)
Correct for Electrical Dark: No (USB4E01242)
Strobe/Lamp Enabled: No (USB4E01242)
Correct for Detector Non-linearity: No (USB4E01242)
Correct for Stray Light: No (USB4E01242)
Number of Pixels in Processed Spectrum: 3648
>>>>>Begin Processed Spectral Data<<<<<
177.33	0.0000E00
177.55	0.0000E00
177.77	0.0000E00
177.99	0.0000E00
178.21	0.0000E00
178.43	-0.0000E00
178.64	-0.0000E00
178.86	-0.0000E00
179.08	-0.0000E00
179.30	-0.0000E00
179.52	-0.0000E00
179.74	-0.0000E00
179.96	-0.0000E00
180.18	-0.0000E00
180.39	-0.0000E00
180.61	-0.0000E00
180.83	-0.0000E00
181.05	-0.0000E00
181.27	-0.0000E00
181.49	-0.0000E00
181.71	-0.0000E00
181.92	-0.0000E00
182.14	-0.0000E00
182.36	-0.0000E00
182.58	-0.0000E00
182.80	-0.0000E00
183.02	-0.0000E00
183.23	-0.0000E00
183.45	-0.0000E00
183.67	-0.0000E00
183.89	-0.0000E00
184.11	-0.0000E00
184.33	-0.0000E00
184.55	-0.0000E00
184.76	-0.0000E00
184.98	-0.0000E00
185.20	-0.0000E00
185.42	-0.0000E00
185.64	-0.0000E00
185.86	-0.0000E00
186.07	-0.0000E00
186.29	-0.0000E00
186.51	-0.0000E00
186.73	-0.0000E00
186.95	-0.0000E00
187.17	-0.0000E00
187.38	-0.0000E00
187.60	-0.0000E00
187.82	-0.0000E00
188.04	-0.0000E00
188.26	-0.0000E00
188.47	-0.0000E00
188.69	-0.0000E00
188.91	-0.0000E00
189.13	-0.0000E00
189.35	-0.0000E00
189.57	-0.0000E00
189.78	-0.0000E00
190.00	-0.0000E00
190.22	-0.0000E00
190.44	-0.0000E00
190.66	-0.0000E00
190.87	-0.0000E00
191.09	-0.0000E00
191.31	-0.0000E00
191.53	-0.0000E00
191.75	-0.0000E00
191.97	-0.0000E00
192.18	-0.0000E00
192.40	-0.0000E00
192.62	-0.0000E00
192.84	-0.0000E00
193.06	-0.0000E00
193.27	-0.0000E00
193.49	-0.0000E00
193.71	-0.0000E00
193.93	-0.0000E00
194.15	-0.0000E00
194.36	-0.0000E00
194.58	-0.0000E00
194.80	-0.0000E00
195.02	-0.0000E00
195.23	-0.0000E00
195.45	-0.0000E00
195.67	-0.0000E00
195.89	-0.0000E00
196.11	-0.0000E00
196.32	-0.0000E00
196.54	-0.0000E00
196.76	-0.0000E00
196.98	-0.0000E00
197.20	-0.0000E00
197.41	-0.0000E00
197.63	-0.0000E00
197.85	-0.0000E00
198.07	-0.0000E00
198.28	-0.0000E00
198.50	-0.0000E00
198.72	-0.0000E00
198.94	-0.0000E00
199.16	-0.0000E00
199.37	-0.0000E00
199.59	-0.0000E00
199.81	-0.0000E00
200.03	-0.0000E00
200.24	-0.0000E00
200.46	-0.0000E00
200.68	-0.0000E00
200.90	-0.0000E00
201.11	-0.0000E00
201.33	-0.0000E00
201.55	-0.0000E00
201.77	-0.0000E00
201.98	-0.0000E00
202.20	-0.0000E00
202.42	-0.0000E00
202.64	-0.0000E00
202.86	-0.0000E00
203.07	-0.0000E00
203.29	-0.0000E00
203.51	-0.0000E00
203.73	-0.0000E00
203.94	-0.0000E00
204.16	-0.0000E00
204.38	-0.0000E00
204.60	-0.0000E00
204.81	-0.0000E00
205.03	-0.0000E00
205.25	-0.0000E00
205.46	-0.0000E00
205.68	-0.0000E00
205.90	-0.0000E00
206.12	-0.0000E00
206.33	-0.0000E00
206.55	0.0000E00
206.77	-0.0000E00
206.99	-0.0000E00
207.20	-0.0000E00
207.42	-0.0000E00
207.64	-0.0000E00
207.86	-0.0000E00
208.07	-0.0000E00
208.29	-0.0000E00
208.51	-0.0000E00
208.72	-0.0000E00
208.94	-0.0000E00
209.16	-0.0000E00
209.38	-0.0000E00
209.59	-0.0000E00
209.81	-0.0000E00
210.03	-0.0000E00
210.25	-0.0000E00
210.46	-0.0000E00
210.68	-0.0000E00
210.90	-0.0000E00
211.11	-0.0000E00
211.33	-0.0000E00
211.55	-0.0000E00
211.77	-0.0000E00
211.98	-0.0000E00
212.20	-0.0000E00
212.42	-0.0000E00
212.63	-0.0000E00
212.85	-0.0000E00
213.07	-0.0000E00
213.29	-0.0000E00
213.50	-0.0000E00
213.72	-0.0000E00
213.94	-0.0000E00
214.15	-0.0000E00
214.37	-0.0000E00
214.59	-0.0000E00
214.80	-0.0000E00
215.02	-0.0000E00
215.24	-0.0000E00
215.45	-0.0000E00
215.67	-0.0000E00
215.89	-0.0000E00
216.11	-0.0000E00
216.32	-0.0000E00
216.54	-0.0000E00
216.76	-0.0000E00
216.97	-0.0000E00
217.19	-0.0000E00
217.41	-0.0000E00
217.62	-0.0000E00
217.84	-0.0000E00
218.06	-0.0000E00
218.27	-0.0000E00
218.49	-0.0000E00
218.71	-0.0000E00
218.92	-0.0000E00
219.14	-0.0000E00
219.36	-0.0000E00
219.57	-0.0000E00
219.79	-0.0000E00
220.01	-0.0000E00
220.22	-0.0000E00
220.44	-0.0000E00
220.66	-0.0000E00
220.88	-0.0000E00
221.09	-0.0000E00
221.31	-0.0000E00
221.53	-0.0000E00
221.74	-0.0000E00
221.96	-0.0000E00
222.17	-0.0000E00
222.39	-0.0000E00
222.61	-0.0000E00
222.82	0.0000E00
223.04	-0.0000E00
223.26	-0.0000E00
223.47	-0.0000E00
223.69	-0.0000E00
223.91	-0.0000E00
224.12	0.0000E00
224.34	-0.0000E00
224.56	-0.0000E00
224.77	-0.0000E00
224.99	-0.0000E00
225.21	-0.0000E00
225.42	-0.0000E00
225.64	-0.0000E00
225.86	-0.0000E00
226.07	-0.0000E00
226.29	-0.0000E00
226.50	-0.0000E00
226.72	-0.0000E00
226.94	-0.0000E00
227.15	-0.0000E00
227.37	-0.0000E00
227.59	-0.0000E00
227.80	-0.0000E00
228.02	-0.0000E00
228.24	-0.0000E00
228.45	-0.0000E00
228.67	-0.0000E00
228.88	-0.0000E00
229.10	-0.0000E00
229.32	-0.0000E00
229.53	0.0000E00
229.75	-0.0000E00
229.97	-0.0000E00
230.18	-0.0000E00
230.40	-0.0000E00
230.61	-0.0000E00
230.83	-0.0000E00
231.05	-0.0000E00
231.26	-0.0000E00
231.48	-0.0000E00
231.70	-0.0000E00
231.91	-0.0000E00
232.13	-0.0000E00
232.34	-0.0000E00
232.56	-0.0000E00
232.78	-0.0000E00
232.99	-0.0000E00
233.21	-0.0000E00
233.42	-0.0000E00
233.64	-0.0000E00
233.86	-0.0000E00
234.07	-0.0000E00
234.29	-0.0000E00
234.50	-0.0000E00
234.72	-0.0000E00
234.94	-0.0000E00
235.15	-0.0000E00
235.37	-0.0000E00
235.58	-0.0000E00
235.80	-0.0000E00
236.02	0.0000E00
236.23	-0.0000E00
236.45	-0.0000E00
236.66	-0.0000E00
236.88	-0.0000E00
237.10	-0.0000E00
237.31	-0.0000E00
237.53	-0.0000E00
237.74	-0.0000E00
237.96	-0.0000E00
238.17	-0.0000E00
238.39	-0.0000E00
238.61	-0.0000E00
238.82	-0.0000E00
239.04	-0.0000E00
239.25	-0.0000E00
239.47	-0.0000E00
239.69	-0.0000E00
239.90	-0.0000E00
240.12	-0.0000E00
240.33	-0.0000E00
240.55	-0.0000E00
240.76	-0.0000E00
240.98	-0.0000E00
241.20	-0.0000E00
241.41	-0.0000E00
241.63	-0.0000E00
241.84	-0.0000E00
242.06	-0.0000E00
242.27	-0.0000E00
242.49	-0.0000E00
242.70	-0.0000E00
242.92	-0.0000E00
243.14	0.0000E00
243.35	-0.0000E00
243.57	-0.0000E00
243.78	-0.0000E00
244.00	-0.0000E00
244.21	-0.0000E00
244.43	-0.0000E00
244.64	-0.0000E00
244.86	-0.0000E00
245.08	-0.0000E00
245.29	-0.0000E00
245.51	-0.0000E00
245.72	-0.0000E00
245.94	-0.0000E00
246.15	-0.0000E00
246.37	-0.0000E00
246.58	-0.0000E00
246.80	-0.0000E00
247.01	-0.0000E00
247.23	-0.0000E00
247.45	-0.0000E00
247.66	-0.0000E00
247.88	-0.0000E00
248.09	-0.0000E00
248.31	-0.0000E00
248.52	-0.0000E00
248.74	-0.0000E00
248.95	0.0000E00
249.17	-0.0000E00
249.38	-0.0000E00
249.60	-0.0000E00
249.81	-0.0000E00
250.03	-0.0000E00
250.24	-0.0000E00
250.46	0.0000E00
250.67	-0.0000E00
250.89	-0.0000E00
251.10	-0.0000E00
251.32	-0.0000E00
251.53	-0.0000E00
251.75	-0.0000E00
251.97	-0.0000E00
252.18	-0.0000E00
252.40	-0.0000E00
252.61	-0.0000E00
252.83	-0.0000E00
253.04	-0.0000E00
253.26	-0.0000E00
253.47	-0.0000E00
253.69	-0.0000E00
253.90	-0.0000E00
254.12	-0.0000E00
254.33	-0.0000E00
254.55	-0.0000E00
254.76	-0.0000E00
254.98	0.0000E00
255.19	-0.0000E00
255.41	-0.0000E00
255.62	-0.0000E00
255.84	-0.0000E00
256.05	-0.0000E00
256.27	-0.0000E00
256.48	-0.0000E00
256.70	-0.0000E00
256.91	-0.0000E00
257.13	-0.0000E00
257.34	-0.0000E00
257.55	-0.0000E00
257.77	-0.0000E00
257.98	-0.0000E00
258.20	-0.0000E00
258.41	-0.0000E00
258.63	-0.0000E00
258.84	-0.0000E00
259.06	-0.0000E00
259.27	-0.0000E00
259.49	0.0000E00
259.70	0.0000E00
259.92	-0.0000E00
260.13	-0.0000E00
260.35	-0.0000E00
260.56	-0.0000E00
260.78	-0.0000E00
260.99	-0.0000E00
261.21	-0.0000E00
261.42	-0.0000E00
261.63	-0.0000E00
261.85	-0.0000E00
262.06	-0.0000E00
262.28	-0.0000E00
262.49	-0.0000E00
262.71	-0.0000E00
262.92	-0.0000E00
263.14	-0.0000E00
263.35	-0.0000E00
263.57	-0.0000E00
263.78	-0.0000E00
264.00	-0.0000E00
264.21	-0.0000E00
264.42	-0.0000E00
264.64	-0.0000E00
264.85	-0.0000E00
265.07	-0.0000E00
265.28	-0.0000E00
265.50	-0.0000E00
265.71	-0.0000E00
265.93	-0.0000E00
266.14	-0.0000E00
266.35	0.0000E00
266.57	-0.0000E00
266.78	-0.0000E00
267.00	-0.0000E00
267.21	-0.0000E00
267.43	-0.0000E00
267.64	-0.0000E00
267.85	-0.0000E00
268.07	-0.0000E00
268.28	-0.0000E00
268.50	-0.0000E00
268.71	-0.0000E00
268.93	-0.0000E00
269.14	-0.0000E00
269.35	-0.0000E00
269.57	-0.0000E00
269.78	-0.0000E00
270.00	-0.0000E00
270.21	0.0000E00
270.43	-0.0000E00
270.64	-0.0000E00
270.85	-0.0000E00
271.07	-0.0000E00
271.28	-0.0000E00
271.50	-0.0000E00
271.71	-0.0000E00
271.92	-0.0000E00
272.14	-0.0000E00
272.35	-0.0000E00
272.57	-0.0000E00
272.78	-0.0000E00
272.99	-0.0000E00
273.21	-0.0000E00
273.42	-0.0000E00
273.64	-0.0000E00
273.85	-0.0000E00
274.07	-0.0000E00
274.28	-0.0000E00
274.49	-0.0000E00
274.71	-0.0000E00
274.92	-0.0000E00
275.13	-0.0000E00
275.35	-0.0000E00
275.56	-0.0000E00
275.78	-0.0000E00
275.99	-0.0000E00
276.20	-0.0000E00
276.42	-0.0000E00
276.63	-0.0000E00
276.85	-0.0000E00
277.06	-0.0000E00
277.27	-0.0000E00
277.49	-0.0000E00
277.70	-0.0000E00
277.92	-0.0000E00
278.13	-0.0000E00
278.34	-0.0000E00
278.56	-0.0000E00
278.77	-0.0000E00
278.98	-0.0000E00
279.20	-0.0000E00
279.41	-0.0000E00
279.63	-0.0000E00
279.84	-0.0000E00
280.05	-0.0000E00
280.27	-0.0000E00
280.48	-0.0000E00
280.69	-0.0000E00
280.91	-0.0000E00
281.12	-0.0000E00
281.33	-0.0000E00
281.55	-0.0000E00
281.76	-0.0000E00
281.98	-0.0000E00
282.19	-0.0000E00
282.40	-0.0000E00
282.62	-0.0000E00
282.83	-0.0000E00
283.04	-0.0000E00
283.26	0.0000E00
283.47	-0.0000E00
283.68	-0.0000E00
283.90	-0.0000E00
284.11	-0.0000E00
284.32	-0.0000E00
284.54	-0.0000E00
284.75	-0.0000E00
284.96	-0.0000E00
285.18	-0.0000E00
285.39	-0.0000E00
285.60	-0.0000E00
285.82	-0.0000E00
286.03	-0.0000E00
286.24	-0.0000E00
286.46	0.0000E00
286.67	-0.0000E00
286.88	-0.0000E00
287.10	-0.0000E00
287.31	-0.0000E00
287.52	-0.0000E00
287.74	-0.0000E00
287.95	-0.0000E00
288.16	-0.0000E00
288.38	-0.0000E00
288.59	-0.0000E00
288.80	-0.0000E00
289.02	-0.0000E00
289.23	-0.0000E00
289.44	-0.0000E00
289.66	-0.0000E00
289.87	-0.0000E00
290.08	-0.0000E00
290.30	-0.0000E00
290.51	-0.0000E00
290.72	-0.0000E00
290.94	-0.0000E00
291.15	-0.0000E00
291.36	0.0000E00
291.57	-0.0000E00
291.79	-0.0000E00
292.00	-0.0000E00
292.21	-0.0000E00
292.43	-0.0000E00
292.64	-0.0000E00
292.85	-0.0000E00
293.07	-0.0000E00
293.28	-0.0000E00
293.49	-0.0000E00
293.70	0.0000E00
293.92	-0.0000E00
294.13	-0.0000E00
294.34	-0.0000E00
294.56	-0.0000E00
294.77	-0.0000E00
294.98	-0.0000E00
295.20	-0.0000E00
295.41	-0.0000E00
295.62	-0.0000E00
295.83	-0.0000E00
296.05	0.0000E00
296.26	-0.0000E00
296.47	-0.0000E00
296.69	-0.0000E00
296.90	-0.0000E00
297.11	-0.0000E00
297.32	-0.0000E00
297.54	-0.0000E00
297.75	-0.0000E00
297.96	-0.0000E00
298.17	-0.0000E00
298.39	-0.0000E00
298.60	-0.0000E00
298.81	-0.0000E00
299.03	-0.0000E00
299.24	-0.0000E00
299.45	-0.0000E00
299.66	-0.0000E00
299.88	-0.0000E00
300.09	-7.0599E-04
300.30	-1.0596E-03
300.51	-1.1101E-04
300.73	-7.8949E-04
300.94	-5.5124E-04
301.15	-1.8477E-04
301.36	-1.0243E-03
301.58	-5.5789E-04
301.79	6.7951E-04
302.00	-4.1573E-04
302.21	-4.8092E-04
302.43	2.2766E-04
302.64	-5.2825E-04
302.85	3.0974E-04
303.06	-6.2545E-04
303.28	1.9213E-04
303.49	-4.5038E-04
303.70	8.3043E-04
303.91	-1.2475E-04
304.13	-4.2030E-04
304.34	6.5596E-05
304.55	1.0395E-03
304.76	-5.0019E-04
304.98	-5.1755E-05
305.19	8.7031E-04
305.40	-2.3547E-04
305.61	7.7642E-04
305.82	1.8903E-04
306.04	8.1242E-04
306.25	-1.5751E-04
306.46	1.0208E-03
306.67	1.2614E-04
306.89	3.5953E-04
307.10	9.3347E-04
307.31	9.6570E-04
307.52	6.0552E-04
307.74	1.4897E-03
307.95	1.4234E-03
308.16	-1.1944E-04
308.37	1.1570E-03
308.58	8.2883E-04
308.80	1.5161E-03
309.01	1.3303E-03
309.22	1.7873E-04
309.43	6.5172E-04
309.64	1.4267E-03
309.86	1.8674E-03
310.07	1.1032E-03
310.28	1.6485E-03
310.49	1.9016E-03
310.70	1.0835E-03
310.92	1.8182E-03
311.13	1.2810E-03
311.34	1.7875E-03
311.55	1.9700E-03
311.76	1.5927E-03
311.98	2.0807E-03
312.19	2.2509E-03
312.40	1.4027E-03
312.61	1.7267E-03
312.82	2.0814E-03
313.04	1.3028E-03
313.25	2.2583E-03
313.46	1.6795E-03
313.67	1.6836E-03
313.88	1.7159E-03
314.10	1.5517E-03
314.31	1.5400E-03
314.52	1.5744E-03
314.73	1.6329E-03
314.94	1.7438E-03
315.16	2.5626E-03
315.37	2.6002E-03
315.58	2.1452E-03
315.79	2.2697E-03
316.00	2.2802E-03
316.21	2.3672E-03
316.43	1.5374E-03
316.64	1.8358E-03
316.85	1.4478E-03
317.06	2.1488E-03
317.27	2.3553E-03
317.48	1.8182E-03
317.70	1.9841E-03
317.91	2.0729E-03
318.12	2.1856E-03
318.33	1.7700E-03
318.54	2.0534E-03
318.75	2.6874E-03
318.97	2.4934E-03
319.18	2.4226E-03
319.39	2.3527E-03
319.60	2.2668E-03
319.81	2.6037E-03
320.02	2.4429E-03
320.24	2.3669E-03
320.45	2.4267E-03
320.66	2.0925E-03
320.87	2.3791E-03
321.08	2.6982E-03
321.29	2.4630E-03
321.50	2.1278E-03
321.72	1.9148E-03
321.93	2.5288E-03
322.14	2.6078E-03
322.35	2.4419E-03
322.56	2.8591E-03
322.77	3.2573E-03
322.98	2.7443E-03
323.20	3.0287E-03
323.41	2.4247E-03
323.62	2.3585E-03
323.83	2.5012E-03
324.04	2.2041E-03
324.25	2.1147E-03
324.46	2.6656E-03
324.67	2.4882E-03
324.89	2.3326E-03
325.10	2.4999E-03
325.31	3.0348E-03
325.52	3.3777E-03
325.73	2.9361E-03
325.94	3.1913E-03
326.15	2.6116E-03
326.36	3.4354E-03
326.58	4.3807E-03
326.79	3.7655E-03
327.00	2.3427E-03
327.21	3.4564E-03
327.42	3.5013E-03
327.63	3.7032E-03
327.84	3.8451E-03
328.05	4.0312E-03
328.26	3.5870E-03
328.48	3.8264E-03
328.69	5.2315E-03
328.90	4.0821E-03
329.11	4.1682E-03
329.32	4.2589E-03
329.53	3.4963E-03
329.74	4.2330E-03
329.95	4.0666E-03
330.16	3.8700E-03
330.37	4.0870E-03
330.59	4.2820E-03
330.80	4.9271E-03
331.01	4.9307E-03
331.22	4.9528E-03
331.43	4.5670E-03
331.64	3.8563E-03
331.85	4.8857E-03
332.06	4.7546E-03
332.27	4.6163E-03
332.48	5.6954E-03
332.69	4.2225E-03
332.91	5.2428E-03
333.12	4.5263E-03
333.33	6.0464E-03
333.54	4.5323E-03
333.75	3.5816E-03
333.96	4.4500E-03
334.17	3.7204E-03
334.38	4.7781E-03
334.59	6.1641E-03
334.80	4.2493E-03
335.01	4.4083E-03
335.22	4.2684E-03
335.43	4.6092E-03
335.64	4.8162E-03
335.86	5.7101E-03
336.07	4.6776E-03
336.28	3.5604E-03
336.49	5.9773E-03
336.70	4.4787E-03
336.91	4.9457E-03
337.12	4.4472E-03
337.33	4.6404E-03
337.54	4.4736E-03
337.75	4.4307E-03
337.96	5.0648E-03
338.17	5.1173E-03
338.38	4.8914E-03
338.59	5.0568E-03
338.80	3.7446E-03
339.01	5.5992E-03
339.22	5.4843E-03
339.43	5.4387E-03
339.65	5.4441E-03
339.86	4.8509E-03
340.07	5.1117E-03
340.28	5.6492E-03
340.49	4.5855E-03
340.70	5.3125E-03
340.91	5.0224E-03
341.12	4.8208E-03
341.33	5.6346E-03
341.54	5.6405E-03
341.75	5.0128E-03
341.96	5.2049E-03
342.17	5.7274E-03
342.38	4.6431E-03
342.59	4.8671E-03
342.80	5.3288E-03
343.01	5.7729E-03
343.22	5.6322E-03
343.43	5.0137E-03
343.64	5.4288E-03
343.85	4.8833E-03
344.06	5.5269E-03
344.27	5.8717E-03
344.48	6.7628E-03
344.69	5.6158E-03
344.90	5.5335E-03
345.11	5.9499E-03
345.32	5.6446E-03
345.53	4.7946E-03
345.74	5.9583E-03
345.95	4.9102E-03
346.16	5.4025E-03
346.37	5.6723E-03
346.58	5.9291E-03
346.79	5.5101E-03
347.00	6.6157E-03
347.21	6.8326E-03
347.42	5.8114E-03
347.63	5.1076E-03
347.84	6.1407E-03
348.05	6.5480E-03
348.26	5.8368E-03
348.47	6.3392E-03
348.68	5.9037E-03
348.89	4.8678E-03
349.10	6.2661E-03
349.31	7.6614E-03
349.52	5.8040E-03
349.73	6.3849E-03
349.94	6.4759E-03
350.15	5.8984E-03
350.36	6.7023E-03
350.57	6.7395E-03
350.78	7.0228E-03
350.99	7.0254E-03
351.20	6.8666E-03
351.41	7.4578E-03
351.62	6.4516E-03
351.83	6.4932E-03
352.04	6.6836E-03
352.25	6.6545E-03
352.46	6.3799E-03
352.67	6.4442E-03
352.88	6.8998E-03
353.09	5.5886E-03
353.30	6.1778E-03
353.51	6.7843E-03
353.72	7.6559E-03
353.93	6.2824E-03
354.14	6.4197E-03
354.35	7.2599E-03
354.56	7.0141E-03
354.77	8.0135E-03
354.98	6.8028E-03
355.19	7.0530E-03
355.39	6.5149E-03
355.60	6.4623E-03
355.81	6.7710E-03
356.02	7.7000E-03
356.23	6.0713E-03
356.44	5.5686E-03
356.65	7.6723E-03
356.86	7.0068E-03
357.07	6.7515E-03
357.28	7.3648E-03
357.49	7.3206E-03
357.70	7.6631E-03
357.91	6.3645E-03
358.12	6.0175E-03
358.33	6.9147E-03
358.54	7.4670E-03
358.75	6.9929E-03
358.96	7.2448E-03
359.16	5.7972E-03
359.37	7.8746E-03
359.58	7.4347E-03
359.79	6.6334E-03
360.00	7.1976E-03
360.21	7.7468E-03
360.42	6.6542E-03
360.63	8.0958E-03
360.84	8.6228E-03
361.05	6.6933E-03
361.26	6.9133E-03
361.47	8.3140E-03
361.68	7.5387E-03
361.88	7.4789E-03
362.09	7.3840E-03
362.30	8.3826E-03
362.51	7.1983E-03
362.72	8.1161E-03
362.93	8.0372E-03
363.14	8.4844E-03
363.35	8.1391E-03
363.56	7.6244E-03
363.77	8.3272E-03
363.98	8.5149E-03
364.18	9.4960E-03
364.39	9.1142E-03
364.60	9.0411E-03
364.81	9.5043E-03
365.02	9.0864E-03
365.23	9.6532E-03
365.44	9.3222E-03
365.65	8.8451E-03
365.86	8.5595E-03
366.07	9.4276E-03
366.27	9.5727E-03
366.48	9.9061E-03
366.69	9.4382E-03
366.90	9.1267E-03
367.11	9.2408E-03
367.32	9.2318E-03
367.53	9.5699E-03
367.74	8.6210E-03
367.95	8.6606E-03
368.15	9.6298E-03
368.36	9.3817E-03
368.57	8.5522E-03
368.78	9.6633E-03
368.99	9.5753E-03
369.20	8.8842E-03
369.41	1.0726E-02
369.62	9.5234E-03
369.82	1.0365E-02
370.03	8.8717E-03
370.24	1.0380E-02
370.45	9.0180E-03
370.66	8.3816E-03
370.87	8.9100E-03
371.08	8.7367E-03
371.28	8.9232E-03
371.49	8.9928E-03
371.70	8.6845E-03
371.91	8.4512E-03
372.12	8.3753E-03
372.33	8.8515E-03
372.54	8.7372E-03
372.74	8.9999E-03
372.95	7.7481E-03
373.16	9.1207E-03
373.37	8.7444E-03
373.58	8.0961E-03
373.79	9.0274E-03
374.00	8.0616E-03
374.20	9.3684E-03
374.41	9.4344E-03
374.62	8.4316E-03
374.83	8.7018E-03
375.04	9.3528E-03
375.25	9.6026E-03
375.45	8.7721E-03
375.66	9.9874E-03
375.87	9.5501E-03
376.08	1.0790E-02
376.29	1.0824E-02
376.50	1.0422E-02
376.70	9.5979E-03
376.91	1.0229E-02
377.12	1.0204E-02
377.33	9.4903E-03
377.54	9.9580E-03
377.75	1.1179E-02
377.95	1.0589E-02
378.16	1.0370E-02
378.37	9.7771E-03
378.58	1.0720E-02
378.79	9.9331E-03
379.00	1.0785E-02
379.20	9.9613E-03
379.41	1.0627E-02
379.62	1.0423E-02
379.83	9.9123E-03
380.04	9.7912E-03
380.24	1.0371E-02
380.45	8.4372E-03
380.66	9.3481E-03
380.87	9.6796E-03
381.08	9.7370E-03
381.28	8.8202E-03
381.49	9.3489E-03
381.70	8.8883E-03
381.91	9.0753E-03
382.12	9.3688E-03
382.32	8.7288E-03
382.53	9.6099E-03
382.74	8.6274E-03
382.95	9.1051E-03
383.16	9.3896E-03
383.36	8.3008E-03
383.57	9.2448E-03
383.78	9.5964E-03
383.99	8.7429E-03
384.20	9.1973E-03
384.40	9.3842E-03
384.61	1.0411E-02
384.82	1.0464E-02
385.03	1.0692E-02
385.23	1.0509E-02
385.44	1.0072E-02
385.65	1.1032E-02
385.86	1.0296E-02
386.07	1.2122E-02
386.27	1.0046E-02
386.48	1.0530E-02
386.69	1.1341E-02
386.90	1.0175E-02
387.10	1.0390E-02
387.31	1.1686E-02
387.52	1.0832E-02
387.73	1.1700E-02
387.94	1.2134E-02
388.14	1.1333E-02
388.35	1.2027E-02
388.56	1.3323E-02
388.77	1.2539E-02
388.97	1.2990E-02
389.18	1.2928E-02
389.39	1.2640E-02
389.60	1.3147E-02
389.80	1.3657E-02
390.01	1.3405E-02
390.22	1.3052E-02
390.43	1.2217E-02
390.63	1.2584E-02
390.84	1.2673E-02
391.05	1.3282E-02
391.26	1.2647E-02
391.46	1.2186E-02
391.67	1.2170E-02
391.88	1.1146E-02
392.09	1.1312E-02
392.29	1.2542E-02
392.50	1.1548E-02
392.71	1.2062E-02
392.92	1.2279E-02
393.12	1.2267E-02
393.33	1.2671E-02
393.54	1.1785E-02
393.74	1.1080E-02
393.95	1.1468E-02
394.16	1.2824E-02
394.37	1.2284E-02
394.57	1.2149E-02
394.78	1.2806E-02
394.99	1.3074E-02
395.19	1.2426E-02
395.40	1.2485E-02
395.61	1.2674E-02
395.82	1.3965E-02
396.02	1.3350E-02
396.23	1.4393E-02
396.44	1.5078E-02
396.65	1.3557E-02
396.85	1.5496E-02
397.06	1.5428E-02
397.27	1.5278E-02
397.47	1.5989E-02
397.68	1.6226E-02
397.89	1.5878E-02
398.09	1.6356E-02
398.30	1.6495E-02
398.51	1.6804E-02
398.72	1.7404E-02
398.92	1.8629E-02
399.13	1.8589E-02
399.34	2.0296E-02
399.54	2.0461E-02
399.75	2.0667E-02
399.96	1.9306E-02
400.16	2.0122E-02
400.37	2.0588E-02
400.58	2.0710E-02
400.78	2.1436E-02
400.99	1.9627E-02
401.20	2.1808E-02
401.41	2.1994E-02
401.61	2.1003E-02
401.82	2.1739E-02
402.03	2.1299E-02
402.23	2.1336E-02
402.44	2.1708E-02
402.65	2.1144E-02
402.85	2.1417E-02
403.06	2.1084E-02
403.27	2.0602E-02
403.47	2.1467E-02
403.68	2.0900E-02
403.89	2.1832E-02
404.09	2.1556E-02
404.30	2.0649E-02
404.51	2.1279E-02
404.71	2.1643E-02
404.92	2.1590E-02
405.13	2.0843E-02
405.33	2.1151E-02
405.54	2.0827E-02
405.75	2.1726E-02
405.95	2.1788E-02
406.16	2.0400E-02
406.37	2.1782E-02
406.57	2.1554E-02
406.78	2.2544E-02
406.99	2.2318E-02
407.19	2.2917E-02
407.40	2.2397E-02
407.60	2.2544E-02
407.81	2.2672E-02
408.02	2.2014E-02
408.22	2.1835E-02
408.43	2.3127E-02
408.64	2.2606E-02
408.84	2.2802E-02
409.05	2.1286E-02
409.26	2.3702E-02
409.46	2.2686E-02
409.67	2.3353E-02
409.87	2.3933E-02
410.08	2.2937E-02
410.29	2.4034E-02
410.49	2.3454E-02
410.70	2.4024E-02
410.91	2.3669E-02
411.11	2.4437E-02
411.32	2.3834E-02
411.52	2.3253E-02
411.73	2.4494E-02
411.94	2.4113E-02
412.14	2.4998E-02
412.35	2.4145E-02
412.56	2.4880E-02
412.76	2.5138E-02
412.97	2.3846E-02
413.17	2.5195E-02
413.38	2.5635E-02
413.59	2.5057E-02
413.79	2.4946E-02
414.00	2.5578E-02
414.20	2.6025E-02
414.41	2.4544E-02
414.62	2.6093E-02
414.82	2.5058E-02
415.03	2.4230E-02
415.23	2.5619E-02
415.44	2.5138E-02
415.65	2.5606E-02
415.85	2.5067E-02
416.06	2.6175E-02
416.26	2.6013E-02
416.47	2.5698E-02
416.68	2.6412E-02
416.88	2.7033E-02
417.09	2.5231E-02
417.29	2.6084E-02
417.50	2.6529E-02
417.71	2.6508E-02
417.91	2.6391E-02
418.12	2.6876E-02
418.32	2.6948E-02
418.53	2.7364E-02
418.73	2.5630E-02
418.94	2.6365E-02
419.15	2.6428E-02
419.35	2.6331E-02
419.56	2.6638E-02
419.76	2.5308E-02
419.97	2.7603E-02
420.17	2.5663E-02
420.38	2.5529E-02
420.59	2.6615E-02
420.79	2.7702E-02
421.00	2.5612E-02
421.20	2.5688E-02
421.41	2.6340E-02
421.61	2.6285E-02
421.82	2.6989E-02
422.02	2.6551E-02
422.23	2.5112E-02
422.44	2.7267E-02
422.64	2.5900E-02
422.85	2.6425E-02
423.05	2.6715E-02
423.26	2.6415E-02
423.46	2.6406E-02
423.67	2.5524E-02
423.87	2.6321E-02
424.08	2.6236E-02
424.29	2.6603E-02
424.49	2.7350E-02
424.70	2.5593E-02
424.90	2.6976E-02
425.11	2.7213E-02
425.31	2.7195E-02
425.52	2.6844E-02
425.72	2.6155E-02
425.93	2.6351E-02
426.13	2.6246E-02
426.34	2.5606E-02
426.54	2.6463E-02
426.75	2.5713E-02
426.95	2.6021E-02
427.16	2.6031E-02
427.36	2.5359E-02
427.57	2.4085E-02
427.78	2.4890E-02
427.98	2.4687E-02
428.19	2.5320E-02
428.39	2.4638E-02
428.60	2.4450E-02
428.80	2.4177E-02
429.01	2.5710E-02
429.21	2.3523E-02
429.42	2.5056E-02
429.62	2.5092E-02
429.83	2.4570E-02
430.03	2.3761E-02
430.24	2.4848E-02
430.44	2.3968E-02
430.65	2.5191E-02
430.85	2.5789E-02
431.06	2.5688E-02
431.26	2.5672E-02
431.47	2.5079E-02
431.67	2.7358E-02
431.88	2.6403E-02
432.08	2.6847E-02
432.29	2.7505E-02
432.49	2.7102E-02
432.70	2.7430E-02
432.90	2.8330E-02
433.11	2.7932E-02
433.31	2.6971E-02
433.52	2.8758E-02
433.72	2.8415E-02
433.93	2.8499E-02
434.13	2.8791E-02
434.34	2.9646E-02
434.54	2.8421E-02
434.74	2.9244E-02
434.95	2.9044E-02
435.15	2.9394E-02
435.36	2.9115E-02
435.56	2.8483E-02
435.77	2.9030E-02
435.97	2.9146E-02
436.18	3.0414E-02
436.38	3.0120E-02
436.59	2.8864E-02
436.79	2.9857E-02
437.00	3.0446E-02
437.20	2.9266E-02
437.41	2.8719E-02
437.61	3.0760E-02
437.81	2.9879E-02
438.02	2.9395E-02
438.22	2.9703E-02
438.43	2.9841E-02
438.63	3.0831E-02
438.84	3.0568E-02
439.04	3.0186E-02
439.25	3.0650E-02
439.45	3.0262E-02
439.66	3.0418E-02
439.86	3.0901E-02
440.06	3.2053E-02
440.27	3.0815E-02
440.47	3.0797E-02
440.68	3.1689E-02
440.88	3.2043E-02
441.09	3.2200E-02
441.29	3.3078E-02
441.49	3.2262E-02
441.70	3.3454E-02
441.90	3.1658E-02
442.11	3.3181E-02
442.31	3.3461E-02
442.52	3.3828E-02
442.72	3.1490E-02
442.92	3.2836E-02
443.13	3.3169E-02
443.33	3.3427E-02
443.54	3.2903E-02
443.74	3.3721E-02
443.95	3.3507E-02
444.15	3.3178E-02
444.35	3.3949E-02
444.56	3.2993E-02
444.76	3.3034E-02
444.97	3.5468E-02
445.17	3.4400E-02
445.37	3.4983E-02
445.58	3.2617E-02
445.78	3.3855E-02
445.99	3.3572E-02
446.19	3.3787E-02
446.39	3.3824E-02
446.60	3.3757E-02
446.80	3.4415E-02
447.01	3.4599E-02
447.21	3.5689E-02
447.41	3.4189E-02
447.62	3.5834E-02
447.82	3.5026E-02
448.03	3.6256E-02
448.23	3.6071E-02
448.43	3.5908E-02
448.64	3.6892E-02
448.84	3.6265E-02
449.05	3.5286E-02
449.25	3.6587E-02
449.45	3.6229E-02
449.66	3.6837E-02
449.86	3.6252E-02
450.07	3.5929E-02
450.27	3.7384E-02
450.47	3.6108E-02
450.68	3.7141E-02
450.88	3.5911E-02
451.08	3.6589E-02
451.29	3.5526E-02
451.49	3.7247E-02
451.70	3.6729E-02
451.90	3.7613E-02
452.10	3.6802E-02
452.31	3.5476E-02
452.51	3.6056E-02
452.71	3.5720E-02
452.92	3.6688E-02
453.12	3.6880E-02
453.32	3.7185E-02
453.53	3.6413E-02
453.73	3.5978E-02
453.93	3.5722E-02
454.14	3.6623E-02
454.34	3.7223E-02
454.55	3.7014E-02
454.75	3.7387E-02
454.95	3.5288E-02
455.16	3.8542E-02
455.36	3.5872E-02
455.56	3.8068E-02
455.77	3.8048E-02
455.97	3.8307E-02
456.17	3.6847E-02
456.38	3.8377E-02
456.58	3.8665E-02
456.78	3.7963E-02
456.99	3.6299E-02
457.19	3.8330E-02
457.39	3.7757E-02
457.60	3.8161E-02
457.80	3.8049E-02
458.00	3.7918E-02
458.21	3.9329E-02
458.41	3.8976E-02
458.61	3.8002E-02
458.82	3.7865E-02
459.02	3.7604E-02
459.22	3.9353E-02
459.43	3.9585E-02
459.63	3.9547E-02
459.83	3.7580E-02
460.03	3.9559E-02
460.24	3.9231E-02
460.44	3.8318E-02
460.64	3.9021E-02
460.85	4.0635E-02
461.05	3.8988E-02
461.25	3.9542E-02
461.46	3.8956E-02
461.66	3.8556E-02
461.86	3.9669E-02
462.07	4.0412E-02
462.27	3.9634E-02
462.47	4.0348E-02
462.67	3.9315E-02
462.88	4.0806E-02
463.08	3.8864E-02
463.28	3.9989E-02
463.49	3.9719E-02
463.69	4.0513E-02
463.89	3.9190E-02
464.09	3.9622E-02
464.30	3.9833E-02
464.50	4.0776E-02
464.70	3.9669E-02
464.91	3.9247E-02
465.11	3.9345E-02
465.31	3.8683E-02
465.51	3.9126E-02
465.72	4.0310E-02
465.92	3.9552E-02
466.12	3.8570E-02
466.33	3.9205E-02
466.53	4.0101E-02
466.73	4.0870E-02
466.93	4.0400E-02
467.14	3.9085E-02
467.34	4.1761E-02
467.54	4.0756E-02
467.74	3.9653E-02
467.95	3.9745E-02
468.15	3.9607E-02
468.35	4.0833E-02
468.55	4.1263E-02
468.76	4.0210E-02
468.96	4.0621E-02
469.16	3.9506E-02
469.37	3.9708E-02
469.57	4.1721E-02
469.77	4.1187E-02
469.97	4.0769E-02
470.18	4.1998E-02
470.38	4.1354E-02
470.58	4.0959E-02
470.78	4.1650E-02
470.99	4.3106E-02
471.19	4.1191E-02
471.39	4.1753E-02
471.59	4.0254E-02
471.79	4.1440E-02
472.00	4.1796E-02
472.20	4.1776E-02
472.40	4.0418E-02
472.60	4.2796E-02
472.81	4.3660E-02
473.01	4.3564E-02
473.21	4.2124E-02
473.41	4.1228E-02
473.62	4.1948E-02
473.82	4.2853E-02
474.02	4.3464E-02
474.22	4.3297E-02
474.42	4.3395E-02
474.63	4.3194E-02
474.83	4.3864E-02
475.03	4.3128E-02
475.23	4.3836E-02
475.44	4.5180E-02
475.64	4.2329E-02
475.84	4.3564E-02
476.04	4.3108E-02
476.24	4.4913E-02
476.45	4.4778E-02
476.65	4.3459E-02
476.85	4.3777E-02
477.05	4.4624E-02
477.25	4.5476E-02
477.46	4.5225E-02
477.66	4.5245E-02
477.86	4.5863E-02
478.06	4.3267E-02
478.26	4.5136E-02
478.47	4.5118E-02
478.67	4.8742E-02
478.87	4.5332E-02
479.07	4.5240E-02
479.27	4.6732E-02
479.47	4.6427E-02
479.68	4.6684E-02
479.88	4.6665E-02
480.08	4.6070E-02
480.28	4.6489E-02
480.48	4.5540E-02
480.69	4.7448E-02
480.89	4.4792E-02
481.09	4.6255E-02
481.29	4.6762E-02
481.49	4.5069E-02
481.69	4.6099E-02
481.90	4.6579E-02
482.10	4.5555E-02
482.30	4.4118E-02
482.50	4.4971E-02
482.70	4.4599E-02
482.90	4.4334E-02
483.11	4.4745E-02
483.31	4.4202E-02
483.51	4.3427E-02
483.71	4.3420E-02
483.91	4.3163E-02
484.11	4.3884E-02
484.32	4.2896E-02
484.52	4.3351E-02
484.72	4.2793E-02
484.92	4.1877E-02
485.12	4.1543E-02
485.32	4.1790E-02
485.52	4.0968E-02
485.73	4.1420E-02
485.93	4.1830E-02
486.13	4.1604E-02
486.33	4.2127E-02
486.53	4.2669E-02
486.73	4.3295E-02
486.93	4.2090E-02
487.14	4.3480E-02
487.34	4.3097E-02
487.54	4.3722E-02
487.74	4.3795E-02
487.94	4.2910E-02
488.14	4.3957E-02
488.34	4.4186E-02
488.54	4.4601E-02
488.75	4.4205E-02
488.95	4.4614E-02
489.15	4.4256E-02
489.35	4.4104E-02
489.55	4.4740E-02
489.75	4.4983E-02
489.95	4.4512E-02
490.15	4.4827E-02
490.36	4.5365E-02
490.56	4.4894E-02
490.76	4.5589E-02
490.96	4.4402E-02
491.16	4.5362E-02
491.36	4.5134E-02
491.56	4.5171E-02
491.76	4.4158E-02
491.96	4.5074E-02
492.17	4.4681E-02
492.37	4.5457E-02
492.57	4.5798E-02
492.77	4.6122E-02
492.97	4.5705E-02
493.17	4.5937E-02
493.37	4.6449E-02
493.57	4.6076E-02
493.77	4.5824E-02
493.97	4.7336E-02
494.17	4.6578E-02
494.38	4.7289E-02
494.58	4.6809E-02
494.78	4.6451E-02
494.98	4.6794E-02
495.18	4.7122E-02
495.38	4.7065E-02
495.58	4.7286E-02
495.78	4.7690E-02
495.98	4.7646E-02
496.18	4.7433E-02
496.38	4.7237E-02
496.58	4.7044E-02
496.78	4.7942E-02
496.99	4.7556E-02
497.19	4.7193E-02
497.39	4.7575E-02
497.59	4.7168E-02
497.79	4.6612E-02
497.99	4.7516E-02
498.19	4.7019E-02
498.39	4.7412E-02
498.59	4.6739E-02
498.79	4.6683E-02
498.99	4.6933E-02
499.19	4.6999E-02
499.39	4.7154E-02
499.59	4.6276E-02
499.79	4.6371E-02
499.99	4.6371E-02
500.19	4.6649E-02
500.40	4.6930E-02
500.60	4.6657E-02
500.80	4.7184E-02
501.00	4.6484E-02
501.20	4.6911E-02
501.40	4.6931E-02
501.60	4.7002E-02
501.80	4.7084E-02
502.00	4.7503E-02
502.20	4.7614E-02
502.40	4.7898E-02
502.60	4.7841E-02
502.80	4.8786E-02
503.00	4.8838E-02
503.20	4.8888E-02
503.40	4.9060E-02
503.60	4.9444E-02
503.80	5.0033E-02
504.00	5.0121E-02
504.20	5.0643E-02
504.40	5.0824E-02
504.60	5.1279E-02
504.80	5.1462E-02
505.00	5.1645E-02
505.20	5.2109E-02
505.40	5.2159E-02
505.60	5.2279E-02
505.80	5.2726E-02
506.00	5.2934E-02
506.20	5.3142E-02
506.40	5.3337E-02
506.60	5.3616E-02
506.80	5.3609E-02
507.00	5.4101E-02
507.20	5.4425E-02
507.40	5.4880E-02
507.60	5.4752E-02
507.80	5.5186E-02
508.00	5.5507E-02
508.20	5.6040E-02
508.40	5.6070E-02
508.60	5.6113E-02
508.80	5.6220E-02
509.00	5.7342E-02
509.20	5.7302E-02
509.40	5.7440E-02
509.60	5.7902E-02
509.80	5.7957E-02
510.00	5.8623E-02
510.20	5.8712E-02
510.40	5.8957E-02
510.60	5.8951E-02
510.80	5.8988E-02
511.00	5.9169E-02
511.20	5.9999E-02
511.40	5.9797E-02
511.60	5.9996E-02
511.80	6.0295E-02
512.00	6.0438E-02
512.20	6.0778E-02
512.40	6.0601E-02
512.60	6.0876E-02
512.80	6.0947E-02
513.00	6.1230E-02
513.20	6.1119E-02
513.40	6.0935E-02
513.59	6.0804E-02
513.79	6.1119E-02
513.99	6.0982E-02
514.19	6.1063E-02
514.39	6.0798E-02
514.59	6.1077E-02
514.79	6.0716E-02
514.99	6.0662E-02
515.19	6.0803E-02
515.39	6.0862E-02
515.59	6.0924E-02
515.79	6.0477E-02
515.99	6.1191E-02
516.19	6.1155E-02
516.39	6.1092E-02
516.59	6.1359E-02
516.79	6.1832E-02
516.98	6.1502E-02
517.18	6.2295E-02
517.38	6.2496E-02
517.58	6.2883E-02
517.78	6.3186E-02
517.98	6.3663E-02
518.18	6.4221E-02
518.38	6.5294E-02
518.58	6.5372E-02
518.78	6.5884E-02
518.98	6.6451E-02
519.18	6.7127E-02
519.38	6.7923E-02
519.57	6.8314E-02
519.77	6.8556E-02
519.97	6.9318E-02
520.17	6.9572E-02
520.37	6.9960E-02
520.57	7.0671E-02
520.77	7.1215E-02
520.97	7.1561E-02
521.17	7.1786E-02
521.37	7.2493E-02
521.57	7.3099E-02
521.76	7.3064E-02
521.96	7.3736E-02
522.16	7.3925E-02
522.36	7.4598E-02
522.56	7.4162E-02
522.76	7.4614E-02
522.96	7.5178E-02
523.16	7.5045E-02
523.36	7.5497E-02
523.55	7.5182E-02
523.75	7.5320E-02
523.95	7.5334E-02
524.15	7.5202E-02
524.35	7.5556E-02
524.55	7.5769E-02
524.75	7.6081E-02
524.95	7.6277E-02
525.14	7.6098E-02
525.34	7.6161E-02
525.54	7.6055E-02
525.74	7.6409E-02
525.94	7.6667E-02
526.14	7.7234E-02
526.34	7.7410E-02
526.54	7.8065E-02
526.73	7.7840E-02
526.93	7.8739E-02
527.13	7.9158E-02
527.33	7.9696E-02
527.53	8.0444E-02
527.73	8.0701E-02
527.93	8.1528E-02
528.12	8.1660E-02
528.32	8.2399E-02
528.52	8.3372E-02
528.72	8.3981E-02
528.92	8.4148E-02
529.12	8.4565E-02
529.32	8.5155E-02
529.51	8.5668E-02
529.71	8.5963E-02
529.91	8.6237E-02
530.11	8.6727E-02
530.31	8.7226E-02
530.51	8.6887E-02
530.70	8.6975E-02
530.90	8.7546E-02
531.10	8.7546E-02
531.30	8.7907E-02
531.50	8.8030E-02
531.70	8.8267E-02
531.89	8.8098E-02
532.09	8.8343E-02
532.29	8.8416E-02
532.49	8.9074E-02
532.69	8.9070E-02
532.88	8.9237E-02
533.08	8.9143E-02
533.28	8.9638E-02
533.48	9.0299E-02
533.68	9.0303E-02
533.88	9.1010E-02
534.07	9.1181E-02
534.27	9.1442E-02
534.47	9.1950E-02
534.67	9.1585E-02
534.87	9.2447E-02
535.06	9.2514E-02
535.26	9.2492E-02
535.46	9.2609E-02
535.66	9.3591E-02
535.86	9.3194E-02
536.05	9.3295E-02
536.25	9.3571E-02
536.45	9.3806E-02
536.65	9.3682E-02
536.85	9.3580E-02
537.04	9.3822E-02
537.24	9.4298E-02
537.44	9.3331E-02
537.64	9.3072E-02
537.83	9.3670E-02
538.03	9.3805E-02
538.23	9.4041E-02
538.43	9.3907E-02
538.63	9.3482E-02
538.82	9.3724E-02
539.02	9.3733E-02
539.22	9.4136E-02
539.42	9.3774E-02
539.61	9.4143E-02
539.81	9.4212E-02
540.01	9.3879E-02
540.21	9.4237E-02
540.41	9.4274E-02
540.60	9.4527E-02
540.80	9.4829E-02
541.00	9.4958E-02
541.20	9.5608E-02
541.39	9.5673E-02
541.59	9.5953E-02
541.79	9.6356E-02
541.99	9.7074E-02
542.18	9.6998E-02
542.38	9.7265E-02
542.58	9.7425E-02
542.78	9.7770E-02
542.97	9.7572E-02
543.17	9.8240E-02
543.37	9.8104E-02
543.57	9.8896E-02
543.76	9.9422E-02
543.96	9.9487E-02
544.16	9.9250E-02
544.36	9.9720E-02
544.55	1.0043E-01
544.75	1.0031E-01
544.95	1.0075E-01
545.14	1.0005E-01
545.34	1.0107E-01
545.54	1.0085E-01
545.74	1.0115E-01
545.93	1.0173E-01
546.13	1.0174E-01
546.33	1.0172E-01
546.53	1.0183E-01
546.72	1.0279E-01
546.92	1.0309E-01
547.12	1.0297E-01
547.31	1.0354E-01
547.51	1.0368E-01
547.71	1.0438E-01
547.91	1.0463E-01
548.10	1.0415E-01
548.30	1.0468E-01
548.50	1.0548E-01
548.69	1.0555E-01
548.89	1.0564E-01
549.09	1.0591E-01
549.29	1.0594E-01
549.48	1.0709E-01
549.68	1.0628E-01
549.88	1.0721E-01
550.07	1.0749E-01
550.27	1.0770E-01
550.47	1.0596E-01
550.66	1.0870E-01
550.86	1.0780E-01
551.06	1.0900E-01
551.25	1.0849E-01
551.45	1.0935E-01
551.65	1.0948E-01
551.85	1.0999E-01
552.04	1.0903E-01
552.24	1.1000E-01
552.44	1.0983E-01
552.63	1.1006E-01
552.83	1.1064E-01
553.03	1.1025E-01
553.22	1.1138E-01
553.42	1.1096E-01
553.62	1.1189E-01
553.81	1.1133E-01
554.01	1.1182E-01
554.21	1.1136E-01
554.40	1.1180E-01
554.60	1.1170E-01
554.80	1.1201E-01
554.99	1.1195E-01
555.19	1.1186E-01
555.39	1.1201E-01
555.58	1.1144E-01
555.78	1.1161E-01
555.98	1.1138E-01
556.17	1.1129E-01
556.37	1.1125E-01
556.56	1.1116E-01
556.76	1.1094E-01
556.96	1.1055E-01
557.15	1.1079E-01
557.35	1.1050E-01
557.55	1.1047E-01
557.74	1.1037E-01
557.94	1.1062E-01
558.14	1.1084E-01
558.33	1.1021E-01
558.53	1.1024E-01
558.73	1.1068E-01
558.92	1.1027E-01
559.12	1.1124E-01
559.31	1.1149E-01
559.51	1.1194E-01
559.71	1.1163E-01
559.90	1.1204E-01
560.10	1.1220E-01
560.30	1.1239E-01
560.49	1.1237E-01
560.69	1.1297E-01
560.88	1.1358E-01
561.08	1.1282E-01
561.28	1.1309E-01
561.47	1.1379E-01
561.67	1.1403E-01
561.86	1.1379E-01
562.06	1.1417E-01
562.26	1.1456E-01
562.45	1.1436E-01
562.65	1.1467E-01
562.84	1.1399E-01
563.04	1.1437E-01
563.24	1.1446E-01
563.43	1.1510E-01
563.63	1.1517E-01
563.82	1.1483E-01
564.02	1.1524E-01
564.22	1.1551E-01
564.41	1.1477E-01
564.61	1.1517E-01
564.80	1.1531E-01
565.00	1.1484E-01
565.20	1.1545E-01
565.39	1.1468E-01
565.59	1.1433E-01
565.78	1.1478E-01
565.98	1.1418E-01
566.18	1.1503E-01
566.37	1.1475E-01
566.57	1.1448E-01
566.76	1.1426E-01
566.96	1.1507E-01
567.15	1.1447E-01
567.35	1.1522E-01
567.55	1.1464E-01
567.74	1.1472E-01
567.94	1.1435E-01
568.13	1.1478E-01
568.33	1.1513E-01
568.52	1.1503E-01
568.72	1.1467E-01
568.91	1.1455E-01
569.11	1.1478E-01
569.31	1.1546E-01
569.50	1.1477E-01
569.70	1.1545E-01
569.89	1.1549E-01
570.09	1.1548E-01
570.28	1.1571E-01
570.48	1.1602E-01
570.67	1.1677E-01
570.87	1.1609E-01
571.07	1.1626E-01
571.26	1.1699E-01
571.46	1.1710E-01
571.65	1.1759E-01
571.85	1.1817E-01
572.04	1.1797E-01
572.24	1.1881E-01
572.43	1.1829E-01
572.63	1.1896E-01
572.82	1.1866E-01
573.02	1.1931E-01
573.21	1.1905E-01
573.41	1.1962E-01
573.60	1.2012E-01
573.80	1.1991E-01
573.99	1.1962E-01
574.19	1.2037E-01
574.38	1.1979E-01
574.58	1.2006E-01
574.78	1.1942E-01
574.97	1.2015E-01
575.17	1.1991E-01
575.36	1.1965E-01
575.56	1.1927E-01
575.75	1.2020E-01
575.95	1.1941E-01
576.14	1.1922E-01
576.34	1.1989E-01
576.53	1.1933E-01
576.73	1.1960E-01
576.92	1.1905E-01
577.12	1.2004E-01
577.31	1.1866E-01
577.51	1.1998E-01
577.70	1.1954E-01
577.90	1.1955E-01
578.09	1.2006E-01
578.29	1.1960E-01
578.48	1.2052E-01
578.68	1.2027E-01
578.87	1.2144E-01
579.06	1.2073E-01
579.26	1.2140E-01
579.45	1.2131E-01
579.65	1.2276E-01
579.84	1.2219E-01
580.04	1.2290E-01
580.23	1.2351E-01
580.43	1.2285E-01
580.62	1.2377E-01
580.82	1.2420E-01
581.01	1.2428E-01
581.21	1.2452E-01
581.40	1.2461E-01
581.60	1.2559E-01
581.79	1.2589E-01
581.99	1.2558E-01
582.18	1.2575E-01
582.37	1.2627E-01
582.57	1.2640E-01
582.76	1.2693E-01
582.96	1.2713E-01
583.15	1.2702E-01
583.35	1.2700E-01
583.54	1.2715E-01
583.74	1.2697E-01
583.93	1.2669E-01
584.12	1.2640E-01
584.32	1.2741E-01
584.51	1.2684E-01
584.71	1.2615E-01
584.90	1.2609E-01
585.10	1.2603E-01
585.29	1.2595E-01
585.49	1.2587E-01
585.68	1.2583E-01
585.87	1.2526E-01
586.07	1.2476E-01
586.26	1.2434E-01
586.46	1.2394E-01
586.65	1.2336E-01
586.85	1.2324E-01
587.04	1.2189E-01
587.23	1.2253E-01
587.43	1.2208E-01
587.62	1.2063E-01
587.82	1.2153E-01
588.01	1.2070E-01
588.20	1.2076E-01
588.40	1.1996E-01
588.59	1.2054E-01
588.79	1.2066E-01
588.98	1.2103E-01
589.18	1.2064E-01
589.37	1.2135E-01
589.56	1.2076E-01
589.76	1.2079E-01
589.95	1.2215E-01
590.15	1.2205E-01
590.34	1.2189E-01
590.53	1.2332E-01
590.73	1.2313E-01
590.92	1.2362E-01
591.11	1.2446E-01
591.31	1.2490E-01
591.50	1.2545E-01
591.70	1.2545E-01
591.89	1.2622E-01
592.08	1.2567E-01
592.28	1.2561E-01
592.47	1.2688E-01
592.67	1.2684E-01
592.86	1.2704E-01
593.05	1.2655E-01
593.25	1.2766E-01
593.44	1.2739E-01
593.63	1.2826E-01
593.83	1.2772E-01
594.02	1.2902E-01
594.22	1.2914E-01
594.41	1.2974E-01
594.60	1.2924E-01
594.80	1.2970E-01
594.99	1.2988E-01
595.18	1.3016E-01
595.38	1.3004E-01
595.57	1.3058E-01
595.76	1.3095E-01
595.96	1.3106E-01
596.15	1.3043E-01
596.34	1.3231E-01
596.54	1.3233E-01
596.73	1.3209E-01
596.93	1.3265E-01
597.12	1.3240E-01
597.31	1.3293E-01
597.51	1.3269E-01
597.70	1.3311E-01
597.89	1.3296E-01
598.09	1.3285E-01
598.28	1.3424E-01
598.47	1.3313E-01
598.67	1.3358E-01
598.86	1.3301E-01
599.05	1.3429E-01
599.25	1.3395E-01
599.44	1.3440E-01
599.63	1.3498E-01
599.83	1.3450E-01
600.02	1.3461E-01
600.21	1.3501E-01
600.41	1.3543E-01
600.60	1.3496E-01
600.79	1.3585E-01
600.98	1.3625E-01
601.18	1.3712E-01
601.37	1.3627E-01
601.56	1.3676E-01
601.76	1.3836E-01
601.95	1.3744E-01
602.14	1.3792E-01
602.34	1.3828E-01
602.53	1.3942E-01
602.72	1.3871E-01
602.92	1.3959E-01
603.11	1.3940E-01
603.30	1.4016E-01
603.49	1.4015E-01
603.69	1.4137E-01
603.88	1.4101E-01
604.07	1.4178E-01
604.27	1.4138E-01
604.46	1.4101E-01
604.65	1.4166E-01
604.84	1.4169E-01
605.04	1.4202E-01
605.23	1.4198E-01
605.42	1.4220E-01
605.62	1.4270E-01
605.81	1.4224E-01
606.00	1.4254E-01
606.19	1.4312E-01
606.39	1.4329E-01
606.58	1.4266E-01
606.77	1.4300E-01
606.97	1.4261E-01
607.16	1.4343E-01
607.35	1.4368E-01
607.54	1.4317E-01
607.74	1.4387E-01
607.93	1.4402E-01
608.12	1.4330E-01
608.31	1.4385E-01
608.51	1.4417E-01
608.70	1.4395E-01
608.89	1.4394E-01
609.08	1.4383E-01
609.28	1.4467E-01
609.47	1.4496E-01
609.66	1.4499E-01
609.85	1.4512E-01
610.05	1.4517E-01
610.24	1.4459E-01
610.43	1.4490E-01
610.62	1.4480E-01
610.82	1.4466E-01
611.01	1.4536E-01
611.20	1.4506E-01
611.39	1.4526E-01
611.59	1.4523E-01
611.78	1.4557E-01
611.97	1.4541E-01
612.16	1.4633E-01
612.35	1.4544E-01
612.55	1.4562E-01
612.74	1.4604E-01
612.93	1.4601E-01
613.12	1.4502E-01
613.32	1.4546E-01
613.51	1.4549E-01
613.70	1.4563E-01
613.89	1.4572E-01
614.08	1.4608E-01
614.28	1.4596E-01
614.47	1.4574E-01
614.66	1.4610E-01
614.85	1.4677E-01
615.04	1.4677E-01
615.24	1.4788E-01
615.43	1.4739E-01
615.62	1.4741E-01
615.81	1.4790E-01
616.00	1.4743E-01
616.20	1.4854E-01
616.39	1.4913E-01
616.58	1.4945E-01
616.77	1.5006E-01
616.96	1.5142E-01
617.16	1.5192E-01
617.35	1.5209E-01
617.54	1.5216E-01
617.73	1.5223E-01
617.92	1.5288E-01
618.12	1.5403E-01
618.31	1.5423E-01
618.50	1.5469E-01
618.69	1.5470E-01
618.88	1.5597E-01
619.07	1.5578E-01
619.27	1.5610E-01
619.46	1.5644E-01
619.65	1.5709E-01
619.84	1.5637E-01
620.03	1.5636E-01
620.22	1.5728E-01
620.42	1.5568E-01
620.61	1.5753E-01
620.80	1.5713E-01
620.99	1.5695E-01
621.18	1.5759E-01
621.37	1.5669E-01
621.57	1.5586E-01
621.76	1.5715E-01
621.95	1.5689E-01
622.14	1.5633E-01
622.33	1.5592E-01
622.52	1.5642E-01
622.71	1.5708E-01
622.91	1.5751E-01
623.10	1.5716E-01
623.29	1.5714E-01
623.48	1.5687E-01
623.67	1.5783E-01
623.86	1.5786E-01
624.05	1.5787E-01
624.25	1.5738E-01
624.44	1.5818E-01
624.63	1.5862E-01
624.82	1.5826E-01
625.01	1.5798E-01
625.20	1.5906E-01
625.39	1.5765E-01
625.58	1.5879E-01
625.78	1.5909E-01
625.97	1.5781E-01
626.16	1.5853E-01
626.35	1.5846E-01
626.54	1.5946E-01
626.73	1.5960E-01
626.92	1.5914E-01
627.11	1.5912E-01
627.31	1.5907E-01
627.50	1.5886E-01
627.69	1.5929E-01
627.88	1.5979E-01
628.07	1.5787E-01
628.26	1.5907E-01
628.45	1.5880E-01
628.64	1.5925E-01
628.83	1.5918E-01
629.02	1.5802E-01
629.22	1.6036E-01
629.41	1.5917E-01
629.60	1.5809E-01
629.79	1.6013E-01
629.98	1.5934E-01
630.17	1.5999E-01
630.36	1.5981E-01
630.55	1.6003E-01
630.74	1.6019E-01
630.93	1.6096E-01
631.12	1.5971E-01
631.31	1.5995E-01
631.51	1.6116E-01
631.70	1.6121E-01
631.89	1.6042E-01
632.08	1.6085E-01
632.27	1.6131E-01
632.46	1.6133E-01
632.65	1.6160E-01
632.84	1.6092E-01
633.03	1.6269E-01
633.22	1.6209E-01
633.41	1.6309E-01
633.60	1.6319E-01
633.79	1.6264E-01
633.98	1.6181E-01
634.17	1.6280E-01
634.37	1.6311E-01
634.56	1.6379E-01
634.75	1.6269E-01
634.94	1.6405E-01
635.13	1.6362E-01
635.32	1.6435E-01
635.51	1.6446E-01
635.70	1.6358E-01
635.89	1.6550E-01
636.08	1.6418E-01
636.27	1.6366E-01
636.46	1.6483E-01
636.65	1.6405E-01
636.84	1.6352E-01
637.03	1.6485E-01
637.22	1.6468E-01
637.41	1.6439E-01
637.60	1.6486E-01
637.79	1.6485E-01
637.98	1.6440E-01
638.17	1.6458E-01
638.36	1.6377E-01
638.55	1.6310E-01
638.74	1.6313E-01
638.93	1.6320E-01
639.12	1.6291E-01
639.31	1.6319E-01
639.50	1.6264E-01
639.69	1.6212E-01
639.88	1.6309E-01
640.07	1.6230E-01
640.26	1.6324E-01
640.45	1.6286E-01
640.64	1.6328E-01
640.83	1.6325E-01
641.02	1.6389E-01
641.21	1.6283E-01
641.40	1.6161E-01
641.59	1.6303E-01
641.78	1.6326E-01
641.97	1.6315E-01
642.16	1.6345E-01
642.35	1.6302E-01
642.54	1.6295E-01
642.73	1.6245E-01
642.92	1.6054E-01
643.11	1.6282E-01
643.30	1.6279E-01
643.49	1.6181E-01
643.68	1.6196E-01
643.87	1.6087E-01
644.06	1.6152E-01
644.25	1.6063E-01
644.44	1.6064E-01
644.63	1.6022E-01
644.82	1.5995E-01
645.01	1.6017E-01
645.20	1.5988E-01
645.39	1.5904E-01
645.58	1.5860E-01
645.77	1.5854E-01
645.96	1.5911E-01
646.15	1.5823E-01
646.34	1.5838E-01
646.53	1.5808E-01
646.72	1.5801E-01
646.91	1.5703E-01
647.10	1.5863E-01
647.29	1.5719E-01
647.47	1.5748E-01
647.66	1.5678E-01
647.85	1.5616E-01
648.04	1.5622E-01
648.23	1.5627E-01
648.42	1.5799E-01
648.61	1.5546E-01
648.80	1.5641E-01
648.99	1.5697E-01
649.18	1.5589E-01
649.37	1.5713E-01
649.56	1.5680E-01
649.75	1.5667E-01
649.94	1.5800E-01
650.13	1.5786E-01
650.31	1.5828E-01
650.50	1.5796E-01
650.69	1.5897E-01
650.88	1.5865E-01
651.07	1.5898E-01
651.26	1.5972E-01
651.45	1.6117E-01
651.64	1.6055E-01
651.83	1.5963E-01
652.02	1.6018E-01
652.21	1.5932E-01
652.40	1.5903E-01
652.58	1.6044E-01
652.77	1.5833E-01
652.96	1.5762E-01
653.15	1.5793E-01
653.34	1.5722E-01
653.53	1.5666E-01
653.72	1.5590E-01
653.91	1.5433E-01
654.10	1.5437E-01
654.29	1.5306E-01
654.47	1.5433E-01
654.66	1.5167E-01
654.85	1.5197E-01
655.04	1.5110E-01
655.23	1.5181E-01
655.42	1.5042E-01
655.61	1.5140E-01
655.80	1.5121E-01
655.98	1.5227E-01
656.17	1.5246E-01
656.36	1.5341E-01
656.55	1.5330E-01
656.74	1.5531E-01
656.93	1.5574E-01
657.12	1.5710E-01
657.31	1.5666E-01
657.49	1.5966E-01
657.68	1.5989E-01
657.87	1.5894E-01
658.06	1.6199E-01
658.25	1.6142E-01
658.44	1.6301E-01
658.63	1.6285E-01
658.81	1.6287E-01
659.00	1.6423E-01
659.19	1.6426E-01
659.38	1.6608E-01
659.57	1.6655E-01
659.76	1.6585E-01
659.95	1.6764E-01
660.13	1.6566E-01
660.32	1.6732E-01
660.51	1.6705E-01
660.70	1.6800E-01
660.89	1.6750E-01
661.08	1.6761E-01
661.26	1.6716E-01
661.45	1.6807E-01
661.64	1.6750E-01
661.83	1.6761E-01
662.02	1.6825E-01
662.21	1.6901E-01
662.39	1.6966E-01
662.58	1.6891E-01
662.77	1.7075E-01
662.96	1.7007E-01
663.15	1.6909E-01
663.33	1.7096E-01
663.52	1.6981E-01
663.71	1.6998E-01
663.90	1.7024E-01
664.09	1.6941E-01
664.28	1.7038E-01
664.46	1.6985E-01
664.65	1.7032E-01
664.84	1.6957E-01
665.03	1.7085E-01
665.22	1.7155E-01
665.40	1.7162E-01
665.59	1.7119E-01
665.78	1.7133E-01
665.97	1.7132E-01
666.16	1.7217E-01
666.34	1.7285E-01
666.53	1.7163E-01
666.72	1.7294E-01
666.91	1.7219E-01
667.09	1.7234E-01
667.28	1.7303E-01
667.47	1.7308E-01
667.66	1.7261E-01
667.85	1.7248E-01
668.03	1.6952E-01
668.22	1.7316E-01
668.41	1.7263E-01
668.60	1.7064E-01
668.78	1.7322E-01
668.97	1.7223E-01
669.16	1.7144E-01
669.35	1.7285E-01
669.54	1.7096E-01
669.72	1.7244E-01
669.91	1.7150E-01
670.10	1.7193E-01
670.29	1.7168E-01
670.47	1.7220E-01
670.66	1.7258E-01
670.85	1.7152E-01
671.04	1.7037E-01
671.22	1.7025E-01
671.41	1.7116E-01
671.60	1.7126E-01
671.79	1.7139E-01
671.97	1.7061E-01
672.16	1.7240E-01
672.35	1.7157E-01
672.54	1.7163E-01
672.72	1.7086E-01
672.91	1.7008E-01
673.10	1.7067E-01
673.28	1.7033E-01
673.47	1.7058E-01
673.66	1.7061E-01
673.85	1.7193E-01
674.03	1.7110E-01
674.22	1.7094E-01
674.41	1.7008E-01
674.60	1.7006E-01
674.78	1.6884E-01
674.97	1.6963E-01
675.16	1.7235E-01
675.34	1.7109E-01
675.53	1.7014E-01
675.72	1.6935E-01
675.91	1.7185E-01
676.09	1.7040E-01
676.28	1.7128E-01
676.47	1.7075E-01
676.65	1.6926E-01
676.84	1.7052E-01
677.03	1.7121E-01
677.22	1.6971E-01
677.40	1.7070E-01
677.59	1.7004E-01
677.78	1.6980E-01
677.96	1.7007E-01
678.15	1.7093E-01
678.34	1.7194E-01
678.52	1.6991E-01
678.71	1.7026E-01
678.90	1.7043E-01
679.08	1.7078E-01
679.27	1.6975E-01
679.46	1.7145E-01
679.64	1.7055E-01
679.83	1.6994E-01
680.02	1.7027E-01
680.21	1.6846E-01
680.39	1.7109E-01
680.58	1.7009E-01
680.77	1.6969E-01
680.95	1.6998E-01
681.14	1.6853E-01
681.33	1.7002E-01
681.51	1.7104E-01
681.70	1.7034E-01
681.89	1.7072E-01
682.07	1.6934E-01
682.26	1.6755E-01
682.44	1.6952E-01
682.63	1.6916E-01
682.82	1.6941E-01
683.00	1.6633E-01
683.19	1.6745E-01
683.38	1.6764E-01
683.56	1.6721E-01
683.75	1.6573E-01
683.94	1.6335E-01
684.12	1.6205E-01
684.31	1.6266E-01
684.50	1.6201E-01
684.68	1.5947E-01
684.87	1.5821E-01
685.05	1.5771E-01
685.24	1.5515E-01
685.43	1.5520E-01
685.61	1.5437E-01
685.80	1.5234E-01
685.99	1.5298E-01
686.17	1.5049E-01
686.36	1.5162E-01
686.54	1.5066E-01
686.73	1.4938E-01
686.92	1.4888E-01
687.10	1.4798E-01
687.29	1.4884E-01
687.48	1.4729E-01
687.66	1.4952E-01
687.85	1.4786E-01
688.03	1.4862E-01
688.22	1.4750E-01
688.41	1.4962E-01
688.59	1.4813E-01
688.78	1.5055E-01
688.96	1.5120E-01
689.15	1.5242E-01
689.34	1.4934E-01
689.52	1.5323E-01
689.71	1.5222E-01
689.89	1.5325E-01
690.08	1.5475E-01
690.27	1.5355E-01
690.45	1.5334E-01
690.64	1.5336E-01
690.82	1.5287E-01
691.01	1.5439E-01
691.19	1.5424E-01
691.38	1.5497E-01
691.57	1.5584E-01
691.75	1.5440E-01
691.94	1.5649E-01
692.12	1.5542E-01
692.31	1.5698E-01
692.50	1.5608E-01
692.68	1.5705E-01
692.87	1.5815E-01
693.05	1.5741E-01
693.24	1.5607E-01
693.42	1.5736E-01
693.61	1.5831E-01
693.79	1.5960E-01
693.98	1.5842E-01
694.17	1.6001E-01
694.35	1.6184E-01
694.54	1.6235E-01
694.72	1.6185E-01
694.91	1.6255E-01
695.09	1.6307E-01
695.28	1.6378E-01
695.46	1.6475E-01
695.65	1.6544E-01
695.83	1.6601E-01
696.02	1.6739E-01
696.21	1.6786E-01
696.39	1.6693E-01
696.58	1.6804E-01
696.76	1.6537E-01
696.95	1.6727E-01
697.13	1.6763E-01
697.32	1.6810E-01
697.50	1.6814E-01
697.69	1.6849E-01
697.87	1.6894E-01
698.06	1.6878E-01
698.24	1.6704E-01
698.43	1.6736E-01
698.61	1.6920E-01
698.80	1.6765E-01
698.98	1.6850E-01
699.17	1.6520E-01
699.35	1.6732E-01
699.54	1.6653E-01
699.72	1.6493E-01
699.91	1.6775E-01
700.09	1.6766E-01
700.28	1.6776E-01
700.46	1.6796E-01
700.65	1.6751E-01
700.83	1.6849E-01
701.02	1.6919E-01
701.20	1.6639E-01
701.39	1.7028E-01
701.57	1.6917E-01
701.76	1.6813E-01
701.94	1.6957E-01
702.13	1.7043E-01
702.31	1.6829E-01
702.50	1.7398E-01
702.68	1.7317E-01
702.87	1.7449E-01
703.05	1.7506E-01
703.24	1.7446E-01
703.42	1.7156E-01
703.61	1.7589E-01
703.79	1.7686E-01
703.98	1.7441E-01
704.16	1.7589E-01
704.35	1.7571E-01
704.53	1.7694E-01
704.72	1.7724E-01
704.90	1.7813E-01
705.08	1.7650E-01
705.27	1.7970E-01
705.45	1.7963E-01
705.64	1.8059E-01
705.82	1.8032E-01
706.01	1.8031E-01
706.19	1.7929E-01
706.38	1.8015E-01
706.56	1.8216E-01
706.75	1.8160E-01
706.93	1.8095E-01
707.11	1.7940E-01
707.30	1.8197E-01
707.48	1.8191E-01
707.67	1.8055E-01
707.85	1.8155E-01
708.04	1.8282E-01
708.22	1.8252E-01
708.40	1.8148E-01
708.59	1.8102E-01
708.77	1.8364E-01
708.96	1.8287E-01
709.14	1.8351E-01
709.33	1.8282E-01
709.51	1.8408E-01
709.69	1.8413E-01
709.88	1.8511E-01
710.06	1.8512E-01
710.25	1.8418E-01
710.43	1.8551E-01
710.62	1.8669E-01
710.80	1.8571E-01
710.98	1.8652E-01
711.17	1.8605E-01
711.35	1.8668E-01
711.54	1.8725E-01
711.72	1.8571E-01
711.90	1.8723E-01
712.09	1.8701E-01
712.27	1.8491E-01
712.46	1.8617E-01
712.64	1.8468E-01
712.82	1.8669E-01
713.01	1.8644E-01
713.19	1.8573E-01
713.37	1.8395E-01
713.56	1.8269E-01
713.74	1.8333E-01
713.93	1.8096E-01
714.11	1.7893E-01
714.29	1.7622E-01
714.48	1.7766E-01
714.66	1.7617E-01
714.85	1.7326E-01
715.03	1.7211E-01
715.21	1.7017E-01
715.40	1.6725E-01
715.58	1.6574E-01
715.76	1.6266E-01
715.95	1.6175E-01
716.13	1.6187E-01
716.31	1.5919E-01
716.50	1.5693E-01
716.68	1.5453E-01
716.87	1.5428E-01
717.05	1.5298E-01
717.23	1.4991E-01
717.42	1.5026E-01
717.60	1.4858E-01
717.78	1.4872E-01
717.97	1.4805E-01
718.15	1.4705E-01
718.33	1.4638E-01
718.52	1.4804E-01
718.70	1.4909E-01
718.88	1.4778E-01
719.07	1.5177E-01
719.25	1.5017E-01
719.43	1.5190E-01
719.62	1.5205E-01
719.80	1.5285E-01
719.98	1.5587E-01
720.17	1.5539E-01
720.35	1.5605E-01
720.53	1.5823E-01
720.72	1.5978E-01
720.90	1.5899E-01
721.08	1.5853E-01
721.27	1.5973E-01
721.45	1.5997E-01
721.63	1.5971E-01
721.82	1.6130E-01
722.00	1.6017E-01
722.18	1.6018E-01
722.36	1.6174E-01
722.55	1.6071E-01
722.73	1.6038E-01
722.91	1.6003E-01
723.10	1.6072E-01
723.28	1.5929E-01
723.46	1.5604E-01
723.65	1.5814E-01
723.83	1.5789E-01
724.01	1.5721E-01
724.19	1.5844E-01
724.38	1.5845E-01
724.56	1.5900E-01
724.74	1.5998E-01
724.93	1.5693E-01
725.11	1.5768E-01
725.29	1.5986E-01
725.47	1.5985E-01
725.66	1.5982E-01
725.84	1.5938E-01
726.02	1.5984E-01
726.21	1.6162E-01
726.39	1.6012E-01
726.57	1.6100E-01
726.75	1.6047E-01
726.94	1.6284E-01
727.12	1.6147E-01
727.30	1.6172E-01
727.48	1.6119E-01
727.67	1.6348E-01
727.85	1.6268E-01
728.03	1.6410E-01
728.21	1.6580E-01
728.40	1.6416E-01
728.58	1.6691E-01
728.76	1.6629E-01
728.94	1.6772E-01
729.13	1.6934E-01
729.31	1.6796E-01
729.49	1.7025E-01
729.67	1.7107E-01
729.86	1.7274E-01
730.04	1.7159E-01
730.22	1.7534E-01
730.40	1.7579E-01
730.59	1.7739E-01
730.77	1.7887E-01
730.95	1.8160E-01
731.13	1.8168E-01
731.31	1.8338E-01
731.50	1.8246E-01
731.68	1.8726E-01
731.86	1.8662E-01
732.04	1.8869E-01
732.23	1.9099E-01
732.41	1.9077E-01
732.59	1.9229E-01
732.77	1.9359E-01
732.95	1.9443E-01
733.14	1.9430E-01
733.32	1.9741E-01
733.50	1.9698E-01
733.68	1.9725E-01
733.86	1.9829E-01
734.05	1.9979E-01
734.23	2.0099E-01
734.41	1.9816E-01
734.59	2.0032E-01
734.77	2.0107E-01
734.96	1.9873E-01
735.14	2.0228E-01
735.32	2.0205E-01
735.50	2.0208E-01
735.68	2.0482E-01
735.87	2.0370E-01
736.05	2.0688E-01
736.23	2.0290E-01
736.41	2.0671E-01
736.59	2.0621E-01
736.77	2.0608E-01
736.96	2.0620E-01
737.14	2.0501E-01
737.32	2.0845E-01
737.50	2.0980E-01
737.68	2.0914E-01
737.87	2.1040E-01
738.05	2.1205E-01
738.23	2.0863E-01
738.41	2.1053E-01
738.59	2.1166E-01
738.77	2.1262E-01
738.95	2.1488E-01
739.14	2.1258E-01
739.32	2.1349E-01
739.50	2.1693E-01
739.68	2.1423E-01
739.86	2.1576E-01
740.04	2.1591E-01
740.23	2.1449E-01
740.41	2.1786E-01
740.59	2.1852E-01
740.77	2.1982E-01
740.95	2.1912E-01
741.13	2.1883E-01
741.31	2.1842E-01
741.50	2.1916E-01
741.68	2.1888E-01
741.86	2.1894E-01
742.04	2.2168E-01
742.22	2.2266E-01
742.40	2.2212E-01
742.58	2.2328E-01
742.76	2.2390E-01
742.95	2.2071E-01
743.13	2.2491E-01
743.31	2.2405E-01
743.49	2.2351E-01
743.67	2.2573E-01
743.85	2.2513E-01
744.03	2.2396E-01
744.21	2.2510E-01
744.39	2.2348E-01
744.58	2.2623E-01
744.76	2.2616E-01
744.94	2.2763E-01
745.12	2.2672E-01
745.30	2.2560E-01
745.48	2.2751E-01
745.66	2.2831E-01
745.84	2.2557E-01
746.02	2.2560E-01
746.20	2.2697E-01
746.38	2.2803E-01
746.57	2.2983E-01
746.75	2.2495E-01
746.93	2.2828E-01
747.11	2.2562E-01
747.29	2.2702E-01
747.47	2.2843E-01
747.65	2.2785E-01
747.83	2.2454E-01
748.01	2.2680E-01
748.19	2.2714E-01
748.37	2.2683E-01
748.55	2.2659E-01
748.73	2.2533E-01
748.92	2.2644E-01
749.10	2.2482E-01
749.28	2.2723E-01
749.46	2.2544E-01
749.64	2.2439E-01
749.82	2.2561E-01
750.00	2.2717E-01
750.18	2.2641E-01
750.36	2.2442E-01
750.54	2.2720E-01
750.72	2.2846E-01
750.90	2.2857E-01
751.08	2.2759E-01
751.26	2.2954E-01
751.44	2.2961E-01
751.62	2.3158E-01
751.80	2.3039E-01
751.98	2.3170E-01
752.16	2.3260E-01
752.34	2.3327E-01
752.52	2.3459E-01
752.71	2.3172E-01
752.89	2.3159E-01
753.07	2.3576E-01
753.25	2.3232E-01
753.43	2.3682E-01
753.61	2.3450E-01
753.79	2.3825E-01
753.97	2.3787E-01
754.15	2.3880E-01
754.33	2.4007E-01
754.51	2.4071E-01
754.69	2.4144E-01
754.87	2.4056E-01
755.05	2.4099E-01
755.23	2.4286E-01
755.41	2.4376E-01
755.59	2.3393E-01
755.77	2.3896E-01
755.95	2.3763E-01
756.13	2.3330E-01
756.31	2.3513E-01
756.49	2.3297E-01
756.67	2.2862E-01
756.85	2.2517E-01
757.03	2.2090E-01
757.21	2.1745E-01
757.39	2.1371E-01
757.57	2.0987E-01
757.75	2.0216E-01
757.93	1.9465E-01
758.11	1.9106E-01
758.29	1.8579E-01
758.47	1.7951E-01
758.65	1.7585E-01
758.83	1.7435E-01
759.01	1.6800E-01
759.18	1.6230E-01
759.36	1.5415E-01
759.54	1.5395E-01
759.72	1.4813E-01
759.90	1.4714E-01
760.08	1.4465E-01
760.26	1.4280E-01
760.44	1.3850E-01
760.62	1.3505E-01
760.80	1.3477E-01
760.98	1.3888E-01
761.16	1.3888E-01
761.34	1.3735E-01
761.52	1.4108E-01
761.70	1.3831E-01
761.88	1.4013E-01
762.06	1.4201E-01
762.24	1.4297E-01
762.42	1.4483E-01
762.60	1.4645E-01
762.78	1.4947E-01
762.95	1.5078E-01
763.13	1.5520E-01
763.31	1.5839E-01
763.49	1.5959E-01
763.67	1.6369E-01
763.85	1.6447E-01
764.03	1.7223E-01
764.21	1.7310E-01
764.39	1.7932E-01
764.57	1.8560E-01
764.75	1.8822E-01
764.93	1.9640E-01
765.11	1.9613E-01
765.28	2.0347E-01
765.46	2.0641E-01
765.64	2.0898E-01
765.82	2.1421E-01
766.00	2.1890E-01
766.18	2.2233E-01
766.36	2.2594E-01
766.54	2.2854E-01
766.72	2.3234E-01
766.90	2.3893E-01
767.07	2.3669E-01
767.25	2.4167E-01
767.43	2.4518E-01
767.61	2.4943E-01
767.79	2.5183E-01
767.97	2.5300E-01
768.15	2.5355E-01
768.33	2.5362E-01
768.51	2.5777E-01
768.68	2.5886E-01
768.86	2.5885E-01
769.04	2.6029E-01
769.22	2.6548E-01
769.40	2.6589E-01
769.58	2.6416E-01
769.76	2.6903E-01
769.94	2.6928E-01
770.11	2.6635E-01
770.29	2.6877E-01
770.47	2.6879E-01
770.65	2.6981E-01
770.83	2.6963E-01
771.01	2.7180E-01
771.19	2.7137E-01
771.36	2.6881E-01
771.54	2.7142E-01
771.72	2.6966E-01
771.90	2.6742E-01
772.08	2.7039E-01
772.26	2.7225E-01
772.44	2.6775E-01
772.61	2.7019E-01
772.79	2.6720E-01
772.97	2.7089E-01
773.15	2.7272E-01
773.33	2.6828E-01
773.51	2.7055E-01
773.68	2.6736E-01
773.86	2.6633E-01
774.04	2.6726E-01
774.22	2.6462E-01
774.40	2.6592E-01
774.58	2.6736E-01
774.75	2.6632E-01
774.93	2.6266E-01
775.11	2.6701E-01
775.29	2.6393E-01
775.47	2.6148E-01
775.64	2.6494E-01
775.82	2.6251E-01
776.00	2.6374E-01
776.18	2.6094E-01
776.36	2.6091E-01
776.53	2.6487E-01
776.71	2.6012E-01
776.89	2.5920E-01
777.07	2.6084E-01
777.25	2.6023E-01
777.42	2.6008E-01
777.60	2.5778E-01
777.78	2.6009E-01
777.96	2.5824E-01
778.14	2.6009E-01
778.31	2.5763E-01
778.49	2.5390E-01
778.67	2.5429E-01
778.85	2.5517E-01
779.03	2.5655E-01
779.20	2.5600E-01
779.38	2.5435E-01
779.56	2.5163E-01
779.74	2.5427E-01
779.91	2.5193E-01
780.09	2.5085E-01
780.27	2.4832E-01
780.45	2.4946E-01
780.62	2.5041E-01
780.80	2.5059E-01
780.98	2.4622E-01
781.16	2.4386E-01
781.34	2.4771E-01
781.51	2.4789E-01
781.69	2.4826E-01
781.87	2.4672E-01
782.05	2.4558E-01
782.22	2.4541E-01
782.40	2.4375E-01
782.58	2.4473E-01
782.76	2.4188E-01
782.93	2.4443E-01
783.11	2.4624E-01
783.29	2.4171E-01
783.47	2.4179E-01
783.64	2.4252E-01
783.82	2.4004E-01
784.00	2.3614E-01
784.17	2.3893E-01
784.35	2.3923E-01
784.53	2.3787E-01
784.71	2.3930E-01
784.88	2.3705E-01
785.06	2.4005E-01
785.24	2.3611E-01
785.42	2.3743E-01
785.59	2.3543E-01
785.77	2.3017E-01
785.95	2.3158E-01
786.12	2.2868E-01
786.30	2.3058E-01
786.48	2.2940E-01
786.65	2.2762E-01
786.83	2.2792E-01
787.01	2.2800E-01
787.19	2.2621E-01
787.36	2.2632E-01
787.54	2.2465E-01
787.72	2.2560E-01
787.89	2.2421E-01
788.07	2.2331E-01
788.25	2.2210E-01
788.42	2.2070E-01
788.60	2.2319E-01
788.78	2.2003E-01
788.96	2.2049E-01
789.13	2.1806E-01
789.31	2.1829E-01
789.49	2.1804E-01
789.66	2.1986E-01
789.84	2.1675E-01
790.02	2.1302E-01
790.19	2.1564E-01
790.37	2.1675E-01
790.55	2.1523E-01
790.72	2.1529E-01
790.90	2.1785E-01
791.08	2.1324E-01
791.25	2.1381E-01
791.43	2.1424E-01
791.61	2.1242E-01
791.78	2.1190E-01
791.96	2.0838E-01
792.14	2.1098E-01
792.31	2.1247E-01
792.49	2.0720E-01
792.67	2.1285E-01
792.84	2.0824E-01
793.02	2.0852E-01
793.19	2.0744E-01
793.37	2.1059E-01
793.55	2.1040E-01
793.72	2.0936E-01
793.90	2.0542E-01
794.08	2.0780E-01
794.25	2.0799E-01
794.43	2.0552E-01
794.61	2.0769E-01
794.78	2.0750E-01
794.96	2.0405E-01
795.13	2.0700E-01
795.31	2.0732E-01
795.49	2.0345E-01
795.66	2.0591E-01
795.84	2.0487E-01
796.01	2.0546E-01
796.19	2.0357E-01
796.37	2.0614E-01
796.54	2.0496E-01
796.72	2.0591E-01
796.90	2.0426E-01
797.07	2.0191E-01
797.25	2.0429E-01
797.42	2.0619E-01
797.60	2.0537E-01
797.78	2.0321E-01
797.95	2.0120E-01
798.13	1.9955E-01
798.30	2.0257E-01
798.48	2.0146E-01
798.66	2.0338E-01
798.83	1.9778E-01
799.01	2.0042E-01
799.18	1.9827E-01
799.36	2.0124E-01
799.53	1.9415E-01
799.71	1.9956E-01
799.89	1.9637E-01
800.06	1.9662E-01
800.24	1.9656E-01
800.41	1.9276E-01
800.59	1.9752E-01
800.76	1.9254E-01
800.94	1.9260E-01
801.12	1.9503E-01
801.29	1.9419E-01
801.47	1.9545E-01
801.64	1.9148E-01
801.82	1.9449E-01
801.99	1.9391E-01
802.17	1.9398E-01
802.34	1.9302E-01
802.52	1.9299E-01
802.70	1.9406E-01
802.87	1.9058E-01
803.05	1.8924E-01
803.22	1.9510E-01
803.40	1.9124E-01
803.57	1.9131E-01
803.75	1.9448E-01
803.92	1.9200E-01
804.10	1.8830E-01
804.27	1.8869E-01
804.45	1.9097E-01
804.63	1.8942E-01
804.80	1.8803E-01
804.98	1.9066E-01
805.15	1.8622E-01
805.33	1.9253E-01
805.50	1.9333E-01
805.68	1.9199E-01
805.85	1.9291E-01
806.03	1.9030E-01
806.20	1.9069E-01
806.38	1.8398E-01
806.55	1.8551E-01
806.73	1.9179E-01
806.90	1.8798E-01
807.08	1.8679E-01
807.25	1.8320E-01
807.43	1.8672E-01
807.60	1.8800E-01
807.78	1.8367E-01
807.95	1.8000E-01
808.13	1.8149E-01
808.30	1.8032E-01
808.48	1.8397E-01
808.65	1.8194E-01
808.83	1.8559E-01
809.00	1.8133E-01
809.18	1.8422E-01
809.35	1.7775E-01
809.53	1.8133E-01
809.70	1.7844E-01
809.88	1.7818E-01
810.05	1.7686E-01
810.23	1.7804E-01
810.40	1.7574E-01
810.57	1.7484E-01
810.75	1.7099E-01
810.92	1.7012E-01
811.10	1.6949E-01
811.27	1.6609E-01
811.45	1.6691E-01
811.62	1.6490E-01
811.80	1.6200E-01
811.97	1.6418E-01
812.15	1.6377E-01
812.32	1.6225E-01
812.50	1.5541E-01
812.67	1.6297E-01
812.84	1.5432E-01
813.02	1.5630E-01
813.19	1.5485E-01
813.37	1.5439E-01
813.54	1.5024E-01
813.72	1.5056E-01
813.89	1.4584E-01
814.07	1.4755E-01
814.24	1.4698E-01
814.41	1.4637E-01
814.59	1.4081E-01
814.76	1.3969E-01
814.94	1.4141E-01
815.11	1.4187E-01
815.29	1.3272E-01
815.46	1.3378E-01
815.63	1.3498E-01
815.81	1.3423E-01
815.98	1.2787E-01
816.16	1.2816E-01
816.33	1.3341E-01
816.50	1.3481E-01
816.68	1.3183E-01
816.85	1.2927E-01
817.03	1.3188E-01
817.20	1.3014E-01
817.37	1.3237E-01
817.55	1.2988E-01
817.72	1.3154E-01
817.90	1.2796E-01
818.07	1.3183E-01
818.24	1.2766E-01
818.42	1.2938E-01
818.59	1.2929E-01
818.77	1.2983E-01
818.94	1.3356E-01
819.11	1.2866E-01
819.29	1.3419E-01
819.46	1.3358E-01
819.64	1.2817E-01
819.81	1.3636E-01
819.98	1.3498E-01
820.16	1.3068E-01
820.33	1.3390E-01
820.50	1.3320E-01
820.68	1.2938E-01
820.85	1.3233E-01
821.02	1.3106E-01
821.20	1.2834E-01
821.37	1.3142E-01
821.55	1.2559E-01
821.72	1.2905E-01
821.89	1.2942E-01
822.07	1.3301E-01
822.24	1.3236E-01
822.41	1.2540E-01
822.59	1.3525E-01
822.76	1.3558E-01
822.93	1.3003E-01
823.11	1.3190E-01
823.28	1.3375E-01
823.45	1.3161E-01
823.63	1.3223E-01
823.80	1.3606E-01
823.97	1.2827E-01
824.15	1.3744E-01
824.32	1.3407E-01
824.49	1.4100E-01
824.67	1.3536E-01
824.84	1.3772E-01
825.01	1.3849E-01
825.19	1.3863E-01
825.36	1.3867E-01
825.53	1.4229E-01
825.71	1.4054E-01
825.88	1.4129E-01
826.05	1.3638E-01
826.23	1.4023E-01
826.40	1.3727E-01
826.57	1.3780E-01
826.75	1.3606E-01
826.92	1.3320E-01
827.09	1.3330E-01
827.26	1.4133E-01
827.44	1.3681E-01
827.61	1.4082E-01
827.78	1.3794E-01
827.96	1.3155E-01
828.13	1.4021E-01
828.30	1.3693E-01
828.48	1.3497E-01
828.65	1.3372E-01
828.82	1.3428E-01
828.99	1.3417E-01
829.17	1.3438E-01
829.34	1.2687E-01
829.51	1.3280E-01
829.68	1.3705E-01
829.86	1.3528E-01
830.03	1.3195E-01
830.20	1.3385E-01
830.38	1.3192E-01
830.55	1.2871E-01
830.72	1.3309E-01
830.89	1.2777E-01
831.07	1.2782E-01
831.24	1.2757E-01
831.41	1.2899E-01
831.58	1.3256E-01
831.76	1.3572E-01
831.93	1.3260E-01
832.10	1.3261E-01
832.27	1.2620E-01
832.45	1.2637E-01
832.62	1.3210E-01
832.79	1.2949E-01
832.96	1.3349E-01
833.14	1.2737E-01
833.31	1.3633E-01
833.48	1.3306E-01
833.65	1.3045E-01
833.83	1.3719E-01
834.00	1.3853E-01
834.17	1.3364E-01
834.34	1.3574E-01
834.51	1.3313E-01
834.69	1.3119E-01
834.86	1.3728E-01
835.03	1.3328E-01
835.20	1.3724E-01
835.38	1.3410E-01
835.55	1.3558E-01
835.72	1.3371E-01
835.89	1.4282E-01
836.06	1.3384E-01
836.24	1.3365E-01
836.41	1.3115E-01
836.58	1.3867E-01
836.75	1.3820E-01
836.92	1.3608E-01
837.10	1.3251E-01
837.27	1.3498E-01
837.44	1.3222E-01
837.61	1.3979E-01
837.78	1.3380E-01
837.96	1.3762E-01
838.13	1.3579E-01
838.30	1.3977E-01
838.47	1.3792E-01
838.64	1.3678E-01
838.82	1.3580E-01
838.99	1.4235E-01
839.16	1.3509E-01
839.33	1.3603E-01
839.50	1.4175E-01
839.67	1.3832E-01
839.85	1.3122E-01
840.02	1.3695E-01
840.19	1.3395E-01
840.36	1.4004E-01
840.53	1.3262E-01
840.70	1.3184E-01
840.88	1.3887E-01
841.05	1.4104E-01
841.22	1.3724E-01
841.39	1.3720E-01
841.56	1.3801E-01
841.73	1.3637E-01
841.91	1.3938E-01
842.08	1.3888E-01
842.25	1.3782E-01
842.42	1.3941E-01
842.59	1.3772E-01
842.76	1.4439E-01
842.93	1.3810E-01
843.11	1.3935E-01
843.28	1.3779E-01
843.45	1.3824E-01
843.62	1.3315E-01
843.79	1.3461E-01
843.96	1.4113E-01
844.13	1.3737E-01
844.30	1.3688E-01
844.48	1.4042E-01
844.65	1.3160E-01
844.82	1.2857E-01
844.99	1.3303E-01
845.16	1.3196E-01
845.33	1.3326E-01
845.50	1.3305E-01
845.67	1.2776E-01
845.84	1.3215E-01
846.02	1.2924E-01
846.19	1.3153E-01
846.36	1.3103E-01
846.53	1.3653E-01
846.70	1.3172E-01
846.87	1.2451E-01
847.04	1.3158E-01
847.21	1.3133E-01
847.38	1.3121E-01
847.55	1.3036E-01
847.73	1.2581E-01
847.90	1.2772E-01
848.07	1.2369E-01
848.24	1.2527E-01
848.41	1.2350E-01
848.58	1.3614E-01
848.75	1.2628E-01
848.92	1.3281E-01
849.09	1.2622E-01
849.26	1.2403E-01
849.43	1.2118E-01
849.60	1.2418E-01
849.77	1.2799E-01
849.94	1.1257E-01
850.12	1.2876E-01
850.29	1.2532E-01
850.46	1.2298E-01
850.63	1.2127E-01
850.80	1.2426E-01
850.97	1.2369E-01
851.14	1.1851E-01
851.31	1.1379E-01
851.48	1.1925E-01
851.65	1.2050E-01
851.82	1.2485E-01
851.99	1.2221E-01
852.16	1.1130E-01
852.33	1.1863E-01
852.50	1.1557E-01
852.67	1.1673E-01
852.84	1.1830E-01
853.01	1.1524E-01
853.18	1.1839E-01
853.35	1.1227E-01
853.52	1.2177E-01
853.69	1.1403E-01
853.86	1.0925E-01
854.03	1.0861E-01
854.21	1.1552E-01
854.38	1.1335E-01
854.55	1.1614E-01
854.72	1.1662E-01
854.89	1.0868E-01
855.06	1.0305E-01
855.23	1.1166E-01
855.40	1.1744E-01
855.57	1.0808E-01
855.74	1.1110E-01
855.91	1.1362E-01
856.08	1.0877E-01
856.25	1.1396E-01
856.42	1.1263E-01
856.59	1.1227E-01
856.76	1.1435E-01
856.93	1.1395E-01
857.10	1.1368E-01
857.27	1.2074E-01
857.44	1.1605E-01
857.61	1.1591E-01
857.77	1.1083E-01
857.94	1.1143E-01
858.11	1.1029E-01
858.28	1.1971E-01
858.45	1.1022E-01
858.62	1.1589E-01
858.79	1.1291E-01
858.96	1.1340E-01
859.13	1.1334E-01
859.30	1.1684E-01
859.47	1.1127E-01
859.64	1.0569E-01
859.81	1.1646E-01
859.98	1.1643E-01
860.15	1.1252E-01
860.32	1.0946E-01
860.49	1.2237E-01
860.66	1.1405E-01
860.83	1.1563E-01
861.00	1.1375E-01
861.17	1.1493E-01
861.34	1.1546E-01
861.51	1.0468E-01
861.68	1.1615E-01
861.84	1.1359E-01
862.01	1.0840E-01
862.18	1.0989E-01
862.35	1.1320E-01
862.52	1.1272E-01
862.69	1.0960E-01
862.86	1.1193E-01
863.03	1.1351E-01
863.20	1.1058E-01
863.37	1.1180E-01
863.54	1.0556E-01
863.71	1.0502E-01
863.88	1.0846E-01
864.05	1.0682E-01
864.21	1.1074E-01
864.38	1.0306E-01
864.55	1.0090E-01
864.72	1.1128E-01
864.89	1.0505E-01
865.06	1.0944E-01
865.23	1.0279E-01
865.40	9.8825E-02
865.57	1.0916E-01
865.74	1.0437E-01
865.90	1.0455E-01
866.07	1.0392E-01
866.24	9.6338E-02
866.41	9.4652E-02
866.58	9.7101E-02
866.75	9.7780E-02
866.92	9.8263E-02
867.09	9.8493E-02
867.26	9.9075E-02
867.42	9.3390E-02
867.59	9.0000E-02
867.76	9.9786E-02
867.93	9.4586E-02
868.10	9.6601E-02
868.27	8.6850E-02
868.44	9.6719E-02
868.60	9.9002E-02
868.77	9.7725E-02
868.94	9.4794E-02
869.11	9.3691E-02
869.28	9.9556E-02
869.45	8.8104E-02
869.62	9.7383E-02
869.78	9.3863E-02
869.95	8.8842E-02
870.12	9.1988E-02
870.29	9.6030E-02
870.46	9.6827E-02
870.63	9.1547E-02
870.80	8.6769E-02
870.96	9.1332E-02
871.13	8.9785E-02
871.30	9.5575E-02
871.47	9.5899E-02
871.64	9.5615E-02
871.81	8.2181E-02
871.97	9.9177E-02
872.14	8.5911E-02
872.31	8.3569E-02
872.48	8.8263E-02
872.65	9.5030E-02
872.81	8.9339E-02
872.98	9.7442E-02
873.15	9.4551E-02
873.32	9.5000E-02
873.49	9.0087E-02
873.66	9.4374E-02
873.82	9.0799E-02
873.99	8.7459E-02
874.16	9.2714E-02
874.33	8.8874E-02
874.50	9.3691E-02
874.66	8.9608E-02
874.83	9.0686E-02
875.00	8.9739E-02
875.17	8.0261E-02
875.34	9.3012E-02
875.50	8.6889E-02
875.67	8.5690E-02
875.84	8.7601E-02
876.01	8.5082E-02
876.17	8.2262E-02
876.34	8.2105E-02
876.51	9.2990E-02
876.68	9.0063E-02
876.85	8.7473E-02
877.01	9.0798E-02
877.18	8.3996E-02
877.35	8.5994E-02
877.52	8.5560E-02
877.68	8.8657E-02
877.85	8.3579E-02
878.02	8.5738E-02
878.19	8.3312E-02
878.35	8.5112E-02
878.52	8.3734E-02
878.69	8.5435E-02
878.86	7.8347E-02
879.02	8.1999E-02
879.19	7.6407E-02
879.36	7.9700E-02
879.53	7.1895E-02
879.69	7.8525E-02
879.86	8.5479E-02
880.03	8.4313E-02
880.20	7.7495E-02
880.36	8.5293E-02
880.53	7.5970E-02
880.70	8.5813E-02
880.87	7.8952E-02
881.03	7.8799E-02
881.20	7.0866E-02
881.37	7.7397E-02
881.54	8.0057E-02
881.70	8.4509E-02
881.87	7.6601E-02
882.04	7.7648E-02
882.20	7.8217E-02
882.37	7.1871E-02
882.54	8.0406E-02
882.71	7.9484E-02
882.87	8.4837E-02
883.04	7.7837E-02
883.21	7.7890E-02
883.37	7.5715E-02
883.54	7.7964E-02
883.71	7.5657E-02
883.87	7.2500E-02
884.04	8.2592E-02
884.21	7.5629E-02
884.38	7.2723E-02
884.54	8.3403E-02
884.71	8.3192E-02
884.88	7.4944E-02
885.04	7.7030E-02
885.21	7.2329E-02
885.38	7.2224E-02
885.54	8.3732E-02
885.71	7.2572E-02
885.88	7.6681E-02
886.04	7.4818E-02
886.21	7.5000E-02
886.38	7.1243E-02
886.54	7.1573E-02
886.71	6.7054E-02
886.88	7.7187E-02
887.04	6.4265E-02
887.21	6.9024E-02
887.38	7.4485E-02
887.54	7.2176E-02
887.71	7.0673E-02
887.88	6.7007E-02
888.04	7.2715E-02
888.21	6.7473E-02
888.38	6.8899E-02
888.54	7.1869E-02
888.71	7.0886E-02
888.87	5.7049E-02
889.04	5.7049E-02
>>>>>End Processed Spectral Data<<<<<
