SpectraSuite Data File
++++++++++++++++++++++++++++++++++++
Date: Wed Jul 25 11:09:37 HST 2007
User: guest
Dark Spectrum Present: Yes
Reference Spectrum Present: No
Number of Sampled Component Spectra: 1
Spectrometers: USB4E01242
Integration Time (usec): 20000 (USB4E01242)
Spectra Averaged: 1 (USB4E01242)
Boxcar Smoothing: 10 (USB4E01242)
Correct for Electrical Dark: No (USB4E01242)
Strobe/Lamp Enabled: No (USB4E01242)
Correct for Detector Non-linearity: No (USB4E01242)
Correct for Stray Light: No (USB4E01242)
Number of Pixels in Processed Spectrum: 3648
>>>>>Begin Processed Spectral Data<<<<<
177.33	0.0000E00
177.55	0.0000E00
177.77	0.0000E00
177.99	0.0000E00
178.21	0.0000E00
178.43	-0.0000E00
178.64	-0.0000E00
178.86	-0.0000E00
179.08	-0.0000E00
179.30	-0.0000E00
179.52	-0.0000E00
179.74	-0.0000E00
179.96	-0.0000E00
180.18	-0.0000E00
180.39	-0.0000E00
180.61	-0.0000E00
180.83	-0.0000E00
181.05	-0.0000E00
181.27	-0.0000E00
181.49	-0.0000E00
181.71	-0.0000E00
181.92	-0.0000E00
182.14	0.0000E00
182.36	-0.0000E00
182.58	-0.0000E00
182.80	0.0000E00
183.02	0.0000E00
183.23	-0.0000E00
183.45	-0.0000E00
183.67	-0.0000E00
183.89	-0.0000E00
184.11	0.0000E00
184.33	-0.0000E00
184.55	-0.0000E00
184.76	0.0000E00
184.98	-0.0000E00
185.20	-0.0000E00
185.42	-0.0000E00
185.64	-0.0000E00
185.86	0.0000E00
186.07	-0.0000E00
186.29	-0.0000E00
186.51	-0.0000E00
186.73	0.0000E00
186.95	0.0000E00
187.17	0.0000E00
187.38	-0.0000E00
187.60	0.0000E00
187.82	-0.0000E00
188.04	0.0000E00
188.26	-0.0000E00
188.47	-0.0000E00
188.69	-0.0000E00
188.91	0.0000E00
189.13	-0.0000E00
189.35	-0.0000E00
189.57	0.0000E00
189.78	0.0000E00
190.00	-0.0000E00
190.22	-0.0000E00
190.44	0.0000E00
190.66	-0.0000E00
190.87	0.0000E00
191.09	-0.0000E00
191.31	-0.0000E00
191.53	-0.0000E00
191.75	-0.0000E00
191.97	-0.0000E00
192.18	0.0000E00
192.40	0.0000E00
192.62	0.0000E00
192.84	0.0000E00
193.06	-0.0000E00
193.27	-0.0000E00
193.49	0.0000E00
193.71	0.0000E00
193.93	-0.0000E00
194.15	-0.0000E00
194.36	0.0000E00
194.58	0.0000E00
194.80	0.0000E00
195.02	-0.0000E00
195.23	0.0000E00
195.45	-0.0000E00
195.67	-0.0000E00
195.89	0.0000E00
196.11	0.0000E00
196.32	0.0000E00
196.54	-0.0000E00
196.76	-0.0000E00
196.98	0.0000E00
197.20	0.0000E00
197.41	-0.0000E00
197.63	0.0000E00
197.85	-0.0000E00
198.07	-0.0000E00
198.28	0.0000E00
198.50	0.0000E00
198.72	-0.0000E00
198.94	0.0000E00
199.16	-0.0000E00
199.37	-0.0000E00
199.59	0.0000E00
199.81	-0.0000E00
200.03	0.0000E00
200.24	0.0000E00
200.46	-0.0000E00
200.68	-0.0000E00
200.90	-0.0000E00
201.11	-0.0000E00
201.33	-0.0000E00
201.55	-0.0000E00
201.77	0.0000E00
201.98	-0.0000E00
202.20	0.0000E00
202.42	0.0000E00
202.64	-0.0000E00
202.86	-0.0000E00
203.07	0.0000E00
203.29	-0.0000E00
203.51	0.0000E00
203.73	0.0000E00
203.94	0.0000E00
204.16	-0.0000E00
204.38	0.0000E00
204.60	-0.0000E00
204.81	0.0000E00
205.03	-0.0000E00
205.25	-0.0000E00
205.46	0.0000E00
205.68	-0.0000E00
205.90	-0.0000E00
206.12	-0.0000E00
206.33	-0.0000E00
206.55	0.0000E00
206.77	-0.0000E00
206.99	-0.0000E00
207.20	-0.0000E00
207.42	0.0000E00
207.64	-0.0000E00
207.86	0.0000E00
208.07	0.0000E00
208.29	-0.0000E00
208.51	0.0000E00
208.72	0.0000E00
208.94	0.0000E00
209.16	0.0000E00
209.38	-0.0000E00
209.59	0.0000E00
209.81	-0.0000E00
210.03	-0.0000E00
210.25	-0.0000E00
210.46	-0.0000E00
210.68	-0.0000E00
210.90	-0.0000E00
211.11	0.0000E00
211.33	-0.0000E00
211.55	-0.0000E00
211.77	-0.0000E00
211.98	0.0000E00
212.20	-0.0000E00
212.42	0.0000E00
212.63	-0.0000E00
212.85	0.0000E00
213.07	-0.0000E00
213.29	0.0000E00
213.50	-0.0000E00
213.72	-0.0000E00
213.94	0.0000E00
214.15	-0.0000E00
214.37	-0.0000E00
214.59	-0.0000E00
214.80	0.0000E00
215.02	0.0000E00
215.24	0.0000E00
215.45	-0.0000E00
215.67	0.0000E00
215.89	0.0000E00
216.11	-0.0000E00
216.32	-0.0000E00
216.54	-0.0000E00
216.76	0.0000E00
216.97	0.0000E00
217.19	0.0000E00
217.41	0.0000E00
217.62	0.0000E00
217.84	0.0000E00
218.06	0.0000E00
218.27	0.0000E00
218.49	0.0000E00
218.71	0.0000E00
218.92	0.0000E00
219.14	-0.0000E00
219.36	-0.0000E00
219.57	-0.0000E00
219.79	0.0000E00
220.01	0.0000E00
220.22	0.0000E00
220.44	-0.0000E00
220.66	-0.0000E00
220.88	0.0000E00
221.09	0.0000E00
221.31	-0.0000E00
221.53	-0.0000E00
221.74	0.0000E00
221.96	-0.0000E00
222.17	0.0000E00
222.39	0.0000E00
222.61	-0.0000E00
222.82	0.0000E00
223.04	0.0000E00
223.26	0.0000E00
223.47	-0.0000E00
223.69	-0.0000E00
223.91	-0.0000E00
224.12	0.0000E00
224.34	-0.0000E00
224.56	0.0000E00
224.77	-0.0000E00
224.99	0.0000E00
225.21	0.0000E00
225.42	0.0000E00
225.64	0.0000E00
225.86	-0.0000E00
226.07	0.0000E00
226.29	0.0000E00
226.50	0.0000E00
226.72	0.0000E00
226.94	0.0000E00
227.15	-0.0000E00
227.37	0.0000E00
227.59	-0.0000E00
227.80	0.0000E00
228.02	0.0000E00
228.24	0.0000E00
228.45	0.0000E00
228.67	-0.0000E00
228.88	0.0000E00
229.10	-0.0000E00
229.32	-0.0000E00
229.53	0.0000E00
229.75	-0.0000E00
229.97	0.0000E00
230.18	0.0000E00
230.40	-0.0000E00
230.61	0.0000E00
230.83	0.0000E00
231.05	0.0000E00
231.26	0.0000E00
231.48	-0.0000E00
231.70	0.0000E00
231.91	-0.0000E00
232.13	-0.0000E00
232.34	0.0000E00
232.56	0.0000E00
232.78	-0.0000E00
232.99	0.0000E00
233.21	0.0000E00
233.42	0.0000E00
233.64	0.0000E00
233.86	0.0000E00
234.07	-0.0000E00
234.29	0.0000E00
234.50	-0.0000E00
234.72	0.0000E00
234.94	-0.0000E00
235.15	0.0000E00
235.37	-0.0000E00
235.58	0.0000E00
235.80	0.0000E00
236.02	0.0000E00
236.23	0.0000E00
236.45	-0.0000E00
236.66	-0.0000E00
236.88	0.0000E00
237.10	0.0000E00
237.31	0.0000E00
237.53	0.0000E00
237.74	0.0000E00
237.96	0.0000E00
238.17	-0.0000E00
238.39	0.0000E00
238.61	0.0000E00
238.82	-0.0000E00
239.04	0.0000E00
239.25	-0.0000E00
239.47	-0.0000E00
239.69	-0.0000E00
239.90	-0.0000E00
240.12	0.0000E00
240.33	0.0000E00
240.55	0.0000E00
240.76	0.0000E00
240.98	-0.0000E00
241.20	0.0000E00
241.41	0.0000E00
241.63	-0.0000E00
241.84	0.0000E00
242.06	0.0000E00
242.27	0.0000E00
242.49	-0.0000E00
242.70	0.0000E00
242.92	0.0000E00
243.14	0.0000E00
243.35	-0.0000E00
243.57	0.0000E00
243.78	-0.0000E00
244.00	0.0000E00
244.21	-0.0000E00
244.43	0.0000E00
244.64	0.0000E00
244.86	0.0000E00
245.08	-0.0000E00
245.29	0.0000E00
245.51	0.0000E00
245.72	-0.0000E00
245.94	0.0000E00
246.15	0.0000E00
246.37	0.0000E00
246.58	-0.0000E00
246.80	0.0000E00
247.01	0.0000E00
247.23	-0.0000E00
247.45	0.0000E00
247.66	0.0000E00
247.88	0.0000E00
248.09	0.0000E00
248.31	-0.0000E00
248.52	-0.0000E00
248.74	-0.0000E00
248.95	0.0000E00
249.17	0.0000E00
249.38	-0.0000E00
249.60	0.0000E00
249.81	0.0000E00
250.03	0.0000E00
250.24	-0.0000E00
250.46	0.0000E00
250.67	-0.0000E00
250.89	0.0000E00
251.10	-0.0000E00
251.32	0.0000E00
251.53	-0.0000E00
251.75	-0.0000E00
251.97	0.0000E00
252.18	0.0000E00
252.40	-0.0000E00
252.61	0.0000E00
252.83	0.0000E00
253.04	0.0000E00
253.26	0.0000E00
253.47	-0.0000E00
253.69	0.0000E00
253.90	0.0000E00
254.12	-0.0000E00
254.33	-0.0000E00
254.55	-0.0000E00
254.76	0.0000E00
254.98	0.0000E00
255.19	-0.0000E00
255.41	0.0000E00
255.62	0.0000E00
255.84	-0.0000E00
256.05	-0.0000E00
256.27	0.0000E00
256.48	0.0000E00
256.70	0.0000E00
256.91	-0.0000E00
257.13	0.0000E00
257.34	0.0000E00
257.55	0.0000E00
257.77	0.0000E00
257.98	0.0000E00
258.20	0.0000E00
258.41	0.0000E00
258.63	0.0000E00
258.84	-0.0000E00
259.06	0.0000E00
259.27	0.0000E00
259.49	0.0000E00
259.70	0.0000E00
259.92	-0.0000E00
260.13	0.0000E00
260.35	0.0000E00
260.56	-0.0000E00
260.78	0.0000E00
260.99	0.0000E00
261.21	0.0000E00
261.42	0.0000E00
261.63	-0.0000E00
261.85	-0.0000E00
262.06	-0.0000E00
262.28	0.0000E00
262.49	-0.0000E00
262.71	0.0000E00
262.92	-0.0000E00
263.14	0.0000E00
263.35	-0.0000E00
263.57	0.0000E00
263.78	0.0000E00
264.00	0.0000E00
264.21	0.0000E00
264.42	-0.0000E00
264.64	-0.0000E00
264.85	0.0000E00
265.07	-0.0000E00
265.28	0.0000E00
265.50	-0.0000E00
265.71	0.0000E00
265.93	0.0000E00
266.14	-0.0000E00
266.35	0.0000E00
266.57	0.0000E00
266.78	0.0000E00
267.00	0.0000E00
267.21	0.0000E00
267.43	0.0000E00
267.64	-0.0000E00
267.85	-0.0000E00
268.07	0.0000E00
268.28	0.0000E00
268.50	0.0000E00
268.71	0.0000E00
268.93	0.0000E00
269.14	0.0000E00
269.35	0.0000E00
269.57	0.0000E00
269.78	0.0000E00
270.00	0.0000E00
270.21	0.0000E00
270.43	0.0000E00
270.64	0.0000E00
270.85	0.0000E00
271.07	-0.0000E00
271.28	-0.0000E00
271.50	-0.0000E00
271.71	0.0000E00
271.92	0.0000E00
272.14	0.0000E00
272.35	0.0000E00
272.57	0.0000E00
272.78	0.0000E00
272.99	0.0000E00
273.21	-0.0000E00
273.42	0.0000E00
273.64	0.0000E00
273.85	0.0000E00
274.07	0.0000E00
274.28	0.0000E00
274.49	0.0000E00
274.71	0.0000E00
274.92	0.0000E00
275.13	0.0000E00
275.35	0.0000E00
275.56	-0.0000E00
275.78	0.0000E00
275.99	0.0000E00
276.20	0.0000E00
276.42	-0.0000E00
276.63	-0.0000E00
276.85	-0.0000E00
277.06	0.0000E00
277.27	0.0000E00
277.49	0.0000E00
277.70	0.0000E00
277.92	0.0000E00
278.13	0.0000E00
278.34	0.0000E00
278.56	0.0000E00
278.77	0.0000E00
278.98	0.0000E00
279.20	0.0000E00
279.41	-0.0000E00
279.63	0.0000E00
279.84	-0.0000E00
280.05	0.0000E00
280.27	0.0000E00
280.48	0.0000E00
280.69	-0.0000E00
280.91	-0.0000E00
281.12	0.0000E00
281.33	0.0000E00
281.55	-0.0000E00
281.76	0.0000E00
281.98	0.0000E00
282.19	-0.0000E00
282.40	0.0000E00
282.62	0.0000E00
282.83	-0.0000E00
283.04	-0.0000E00
283.26	0.0000E00
283.47	0.0000E00
283.68	0.0000E00
283.90	-0.0000E00
284.11	0.0000E00
284.32	0.0000E00
284.54	-0.0000E00
284.75	0.0000E00
284.96	0.0000E00
285.18	-0.0000E00
285.39	0.0000E00
285.60	0.0000E00
285.82	-0.0000E00
286.03	0.0000E00
286.24	0.0000E00
286.46	0.0000E00
286.67	0.0000E00
286.88	0.0000E00
287.10	0.0000E00
287.31	0.0000E00
287.52	0.0000E00
287.74	-0.0000E00
287.95	0.0000E00
288.16	0.0000E00
288.38	0.0000E00
288.59	-0.0000E00
288.80	0.0000E00
289.02	0.0000E00
289.23	-0.0000E00
289.44	0.0000E00
289.66	0.0000E00
289.87	0.0000E00
290.08	0.0000E00
290.30	-0.0000E00
290.51	-0.0000E00
290.72	0.0000E00
290.94	0.0000E00
291.15	-0.0000E00
291.36	0.0000E00
291.57	0.0000E00
291.79	0.0000E00
292.00	0.0000E00
292.21	0.0000E00
292.43	-0.0000E00
292.64	0.0000E00
292.85	0.0000E00
293.07	0.0000E00
293.28	0.0000E00
293.49	0.0000E00
293.70	0.0000E00
293.92	0.0000E00
294.13	0.0000E00
294.34	0.0000E00
294.56	0.0000E00
294.77	0.0000E00
294.98	0.0000E00
295.20	0.0000E00
295.41	0.0000E00
295.62	0.0000E00
295.83	0.0000E00
296.05	0.0000E00
296.26	-0.0000E00
296.47	0.0000E00
296.69	0.0000E00
296.90	0.0000E00
297.11	0.0000E00
297.32	-0.0000E00
297.54	0.0000E00
297.75	-0.0000E00
297.96	0.0000E00
298.17	0.0000E00
298.39	0.0000E00
298.60	0.0000E00
298.81	0.0000E00
299.03	0.0000E00
299.24	0.0000E00
299.45	0.0000E00
299.66	0.0000E00
299.88	0.0000E00
300.09	1.1309E-01
300.30	9.9978E-02
300.51	1.5293E-01
300.73	1.0846E-01
300.94	1.2756E-01
301.15	1.5247E-01
301.36	1.1219E-01
301.58	1.3851E-01
301.79	2.2148E-01
302.00	1.5134E-01
302.21	1.4099E-01
302.43	1.8939E-01
302.64	1.4915E-01
302.85	1.9733E-01
303.06	1.4817E-01
303.28	1.9579E-01
303.49	1.6252E-01
303.70	2.2723E-01
303.91	1.7794E-01
304.13	1.7000E-01
304.34	1.9636E-01
304.55	2.4410E-01
304.76	1.6499E-01
304.98	1.8730E-01
305.19	2.3837E-01
305.40	1.8640E-01
305.61	2.3514E-01
305.82	2.1163E-01
306.04	2.5187E-01
306.25	2.0373E-01
306.46	2.8074E-01
306.67	2.3119E-01
306.89	2.4494E-01
307.10	2.8429E-01
307.31	2.8064E-01
307.52	2.6537E-01
307.74	3.1146E-01
307.95	3.1090E-01
308.16	2.3498E-01
308.37	2.9683E-01
308.58	2.9077E-01
308.80	3.3390E-01
309.01	3.2456E-01
309.22	2.7434E-01
309.43	3.0456E-01
309.64	3.5036E-01
309.86	3.8819E-01
310.07	3.4783E-01
310.28	3.6780E-01
310.49	3.8246E-01
310.70	3.4050E-01
310.92	3.9501E-01
311.13	3.7827E-01
311.34	3.8971E-01
311.55	3.9896E-01
311.76	3.9894E-01
311.98	4.7249E-01
312.19	4.1441E-01
312.40	3.9843E-01
312.61	4.2170E-01
312.82	4.5437E-01
313.04	4.1954E-01
313.25	4.6694E-01
313.46	4.3433E-01
313.67	4.3627E-01
313.88	4.5707E-01
314.10	4.4513E-01
314.31	4.4878E-01
314.52	4.6078E-01
314.73	4.8034E-01
314.94	5.1524E-01
315.16	5.2049E-01
315.37	5.6299E-01
315.58	4.8516E-01
315.79	5.2614E-01
316.00	5.4364E-01
316.21	5.6769E-01
316.43	4.8550E-01
316.64	5.1581E-01
316.85	5.1101E-01
317.06	5.5172E-01
317.27	5.8536E-01
317.48	5.4425E-01
317.70	5.6679E-01
317.91	5.6531E-01
318.12	6.0904E-01
318.33	5.4647E-01
318.54	5.7320E-01
318.75	5.8638E-01
318.97	6.3153E-01
319.18	5.9605E-01
319.39	5.8480E-01
319.60	6.0406E-01
319.81	6.3954E-01
320.02	6.0744E-01
320.24	6.2281E-01
320.45	6.5061E-01
320.66	6.0425E-01
320.87	6.4113E-01
321.08	6.8547E-01
321.29	6.7461E-01
321.50	6.4592E-01
321.72	6.1951E-01
321.93	6.8405E-01
322.14	6.3191E-01
322.35	6.9544E-01
322.56	7.0821E-01
322.77	7.3791E-01
322.98	6.7195E-01
323.20	7.4126E-01
323.41	6.7230E-01
323.62	6.7985E-01
323.83	7.4440E-01
324.04	7.0446E-01
324.25	7.0346E-01
324.46	7.3696E-01
324.67	7.5281E-01
324.89	7.3725E-01
325.10	7.3914E-01
325.31	8.1129E-01
325.52	7.8800E-01
325.73	7.6351E-01
325.94	7.9349E-01
326.15	7.7842E-01
326.36	8.8066E-01
326.58	9.1139E-01
326.79	8.9540E-01
327.00	8.0664E-01
327.21	9.1095E-01
327.42	9.3167E-01
327.63	9.3540E-01
327.84	9.1772E-01
328.05	9.4525E-01
328.26	8.5398E-01
328.48	9.2563E-01
328.69	9.6784E-01
328.90	9.4613E-01
329.11	9.5685E-01
329.32	9.6619E-01
329.53	9.3871E-01
329.74	9.6889E-01
329.95	1.0145E00
330.16	1.0059E00
330.37	9.7789E-01
330.59	1.0725E00
330.80	1.0186E00
331.01	1.0299E00
331.22	1.0277E00
331.43	9.8050E-01
331.64	9.7726E-01
331.85	1.0622E00
332.06	1.0389E00
332.27	9.8503E-01
332.48	1.0679E00
332.69	1.0862E00
332.91	1.0651E00
333.12	1.0536E00
333.33	1.1080E00
333.54	9.9461E-01
333.75	9.7178E-01
333.96	1.0028E00
334.17	9.8849E-01
334.38	9.9301E-01
334.59	1.0186E00
334.80	1.0225E00
335.01	1.0061E00
335.22	9.7161E-01
335.43	9.5765E-01
335.64	9.7513E-01
335.86	9.9273E-01
336.07	9.8970E-01
336.28	9.2425E-01
336.49	1.0003E00
336.70	9.4488E-01
336.91	9.3937E-01
337.12	9.2679E-01
337.33	9.9765E-01
337.54	9.5271E-01
337.75	9.5475E-01
337.96	1.0194E00
338.17	1.0291E00
338.38	9.6966E-01
338.59	1.0494E00
338.80	9.6865E-01
339.01	1.0708E00
339.22	1.0735E00
339.43	1.0809E00
339.65	1.0589E00
339.86	1.0425E00
340.07	1.0349E00
340.28	1.0778E00
340.49	1.0814E00
340.70	1.0890E00
340.91	1.0394E00
341.12	1.0194E00
341.33	1.0840E00
341.54	1.1098E00
341.75	1.0592E00
341.96	1.0746E00
342.17	1.0809E00
342.38	1.0418E00
342.59	1.0541E00
342.80	1.0124E00
343.01	1.0371E00
343.22	1.0320E00
343.43	1.0118E00
343.64	9.8486E-01
343.85	1.0242E00
344.06	9.5264E-01
344.27	1.0037E00
344.48	1.0432E00
344.69	9.9609E-01
344.90	9.9894E-01
345.11	9.8460E-01
345.32	9.7871E-01
345.53	9.3732E-01
345.74	1.0075E00
345.95	9.4656E-01
346.16	9.9492E-01
346.37	9.9083E-01
346.58	9.9652E-01
346.79	9.6377E-01
347.00	1.0137E00
347.21	1.0251E00
347.42	9.8396E-01
347.63	9.5800E-01
347.84	1.0020E00
348.05	1.0282E00
348.26	9.9984E-01
348.47	1.0280E00
348.68	1.0279E00
348.89	9.8246E-01
349.10	1.0377E00
349.31	1.0645E00
349.52	1.0386E00
349.73	1.0506E00
349.94	1.0655E00
350.15	1.0460E00
350.36	1.1185E00
350.57	1.1126E00
350.78	1.1304E00
350.99	1.1381E00
351.20	1.1203E00
351.41	1.1566E00
351.62	1.1414E00
351.83	1.1590E00
352.04	1.1645E00
352.25	1.2020E00
352.46	1.1885E00
352.67	1.1776E00
352.88	1.2462E00
353.09	1.1325E00
353.30	1.1936E00
353.51	1.2050E00
353.72	1.2495E00
353.93	1.2021E00
354.14	1.1897E00
354.35	1.2568E00
354.56	1.2034E00
354.77	1.2687E00
354.98	1.1591E00
355.19	1.1791E00
355.39	1.1849E00
355.60	1.1678E00
355.81	1.1828E00
356.02	1.1913E00
356.23	1.1228E00
356.44	1.0997E00
356.65	1.1714E00
356.86	1.1370E00
357.07	1.1294E00
357.28	1.1672E00
357.49	1.1531E00
357.70	1.1755E00
357.91	1.1216E00
358.12	1.1251E00
358.33	1.1753E00
358.54	1.1970E00
358.75	1.1796E00
358.96	1.2289E00
359.16	1.1708E00
359.37	1.2712E00
359.58	1.2563E00
359.79	1.2459E00
360.00	1.2533E00
360.21	1.2854E00
360.42	1.2852E00
360.63	1.3973E00
360.84	1.3609E00
361.05	1.2962E00
361.26	1.3546E00
361.47	1.4075E00
361.68	1.3732E00
361.88	1.4128E00
362.09	1.3897E00
362.30	1.4457E00
362.51	1.4392E00
362.72	1.5155E00
362.93	1.4828E00
363.14	1.5060E00
363.35	1.4999E00
363.56	1.5091E00
363.77	1.5759E00
363.98	1.5781E00
364.18	1.6279E00
364.39	1.6331E00
364.60	1.6179E00
364.81	1.6412E00
365.02	1.6683E00
365.23	1.6995E00
365.44	1.7131E00
365.65	1.7201E00
365.86	1.6862E00
366.07	1.7826E00
366.27	1.7545E00
366.48	1.7843E00
366.69	1.7639E00
366.90	1.8095E00
367.11	1.7966E00
367.32	1.8093E00
367.53	1.7808E00
367.74	1.7627E00
367.95	1.7704E00
368.15	1.8005E00
368.36	1.8275E00
368.57	1.7638E00
368.78	1.8629E00
368.99	1.8003E00
369.20	1.7947E00
369.41	1.8195E00
369.62	1.7874E00
369.82	1.8245E00
370.03	1.7767E00
370.24	1.7793E00
370.45	1.7532E00
370.66	1.7213E00
370.87	1.7060E00
371.08	1.7122E00
371.28	1.6999E00
371.49	1.6919E00
371.70	1.6763E00
371.91	1.6689E00
372.12	1.6317E00
372.33	1.6228E00
372.54	1.6388E00
372.74	1.6243E00
372.95	1.5622E00
373.16	1.6306E00
373.37	1.6376E00
373.58	1.5616E00
373.79	1.6256E00
374.00	1.6113E00
374.20	1.6757E00
374.41	1.6682E00
374.62	1.6534E00
374.83	1.6670E00
375.04	1.6929E00
375.25	1.7186E00
375.45	1.6572E00
375.66	1.7568E00
375.87	1.7621E00
376.08	1.7908E00
376.29	1.7996E00
376.50	1.8009E00
376.70	1.8003E00
376.91	1.8348E00
377.12	1.8477E00
377.33	1.7993E00
377.54	1.8175E00
377.75	1.8670E00
377.95	1.8377E00
378.16	1.8560E00
378.37	1.8177E00
378.58	1.8519E00
378.79	1.7744E00
379.00	1.8366E00
379.20	1.7703E00
379.41	1.7740E00
379.62	1.7668E00
379.83	1.7173E00
380.04	1.7078E00
380.24	1.6669E00
380.45	1.6168E00
380.66	1.6069E00
380.87	1.6189E00
381.08	1.6096E00
381.28	1.5498E00
381.49	1.5688E00
381.70	1.5181E00
381.91	1.5170E00
382.12	1.5325E00
382.32	1.4901E00
382.53	1.5144E00
382.74	1.4712E00
382.95	1.4854E00
383.16	1.5007E00
383.36	1.4409E00
383.57	1.5076E00
383.78	1.5349E00
383.99	1.5048E00
384.20	1.5332E00
384.40	1.5527E00
384.61	1.5941E00
384.82	1.6188E00
385.03	1.6056E00
385.23	1.6340E00
385.44	1.6555E00
385.65	1.6934E00
385.86	1.6631E00
386.07	1.7637E00
386.27	1.6793E00
386.48	1.7342E00
386.69	1.7818E00
386.90	1.7085E00
387.10	1.7822E00
387.31	1.8411E00
387.52	1.8311E00
387.73	1.8746E00
387.94	1.9181E00
388.14	1.8709E00
388.35	1.9129E00
388.56	2.0046E00
388.77	1.9824E00
388.97	2.0054E00
389.18	2.0420E00
389.39	1.9963E00
389.60	2.0004E00
389.80	2.0274E00
390.01	2.0046E00
390.22	1.9931E00
390.43	1.9273E00
390.63	1.9382E00
390.84	1.9287E00
391.05	1.9800E00
391.26	1.9198E00
391.46	1.9019E00
391.67	1.8884E00
391.88	1.8335E00
392.09	1.8270E00
392.29	1.8711E00
392.50	1.8209E00
392.71	1.8214E00
392.92	1.8207E00
393.12	1.7966E00
393.33	1.8050E00
393.54	1.7637E00
393.74	1.7391E00
393.95	1.7630E00
394.16	1.8149E00
394.37	1.7976E00
394.57	1.8144E00
394.78	1.8709E00
394.99	1.8715E00
395.19	1.8904E00
395.40	1.9138E00
395.61	1.9398E00
395.82	2.0076E00
396.02	2.0114E00
396.23	2.0721E00
396.44	2.1105E00
396.65	2.1246E00
396.85	2.2078E00
397.06	2.2443E00
397.27	2.3093E00
397.47	2.3885E00
397.68	2.4199E00
397.89	2.4566E00
398.09	2.5011E00
398.30	2.5928E00
398.51	2.6145E00
398.72	2.6987E00
398.92	2.7803E00
399.13	2.8237E00
399.34	2.8898E00
399.54	2.9335E00
399.75	2.9468E00
399.96	2.9416E00
400.16	2.9675E00
400.37	3.0275E00
400.58	3.0366E00
400.78	3.0718E00
400.99	3.0791E00
401.20	3.1326E00
401.41	3.1281E00
401.61	3.1013E00
401.82	3.1334E00
402.03	3.1035E00
402.23	3.1002E00
402.44	3.1424E00
402.65	3.1139E00
402.85	3.1176E00
403.06	3.1094E00
403.27	3.1193E00
403.47	3.1020E00
403.68	3.0675E00
403.89	3.0965E00
404.09	3.0634E00
404.30	3.0364E00
404.51	3.0925E00
404.71	3.0898E00
404.92	3.1253E00
405.13	3.0373E00
405.33	3.0666E00
405.54	3.0756E00
405.75	3.0871E00
405.95	3.0839E00
406.16	3.0350E00
406.37	3.0908E00
406.57	3.1027E00
406.78	3.1186E00
406.99	3.1110E00
407.19	3.1412E00
407.40	3.1726E00
407.60	3.1714E00
407.81	3.1755E00
408.02	3.1547E00
408.22	3.1723E00
408.43	3.2182E00
408.64	3.2115E00
408.84	3.2143E00
409.05	3.1863E00
409.26	3.2531E00
409.46	3.2729E00
409.67	3.2382E00
409.87	3.2712E00
410.08	3.2750E00
410.29	3.3256E00
410.49	3.2688E00
410.70	3.3352E00
410.91	3.3309E00
411.11	3.3747E00
411.32	3.3725E00
411.52	3.3307E00
411.73	3.3981E00
411.94	3.4039E00
412.14	3.4235E00
412.35	3.3989E00
412.56	3.4409E00
412.76	3.4451E00
412.97	3.4260E00
413.17	3.4514E00
413.38	3.4780E00
413.59	3.4401E00
413.79	3.4608E00
414.00	3.4826E00
414.20	3.4913E00
414.41	3.4377E00
414.62	3.4783E00
414.82	3.4535E00
415.03	3.4227E00
415.23	3.4762E00
415.44	3.4345E00
415.65	3.4662E00
415.85	3.4384E00
416.06	3.4782E00
416.26	3.4468E00
416.47	3.4593E00
416.68	3.4819E00
416.88	3.4939E00
417.09	3.4053E00
417.29	3.4559E00
417.50	3.4735E00
417.71	3.4606E00
417.91	3.4504E00
418.12	3.4484E00
418.32	3.4811E00
418.53	3.4826E00
418.73	3.4571E00
418.94	3.4622E00
419.15	3.4556E00
419.35	3.5123E00
419.56	3.4831E00
419.76	3.4415E00
419.97	3.5126E00
420.17	3.4853E00
420.38	3.4304E00
420.59	3.5179E00
420.79	3.5174E00
421.00	3.4813E00
421.20	3.4387E00
421.41	3.4780E00
421.61	3.4657E00
421.82	3.4914E00
422.02	3.4895E00
422.23	3.4243E00
422.44	3.5164E00
422.64	3.4681E00
422.85	3.4758E00
423.05	3.4755E00
423.26	3.4808E00
423.46	3.4749E00
423.67	3.4527E00
423.87	3.4558E00
424.08	3.4407E00
424.29	3.4422E00
424.49	3.4737E00
424.70	3.4165E00
424.90	3.4537E00
425.11	3.4551E00
425.31	3.4429E00
425.52	3.4457E00
425.72	3.4050E00
425.93	3.4055E00
426.13	3.3640E00
426.34	3.3491E00
426.54	3.3313E00
426.75	3.3191E00
426.95	3.3013E00
427.16	3.2786E00
427.36	3.2509E00
427.57	3.2135E00
427.78	3.1848E00
427.98	3.1764E00
428.19	3.1702E00
428.39	3.1298E00
428.60	3.1221E00
428.80	3.1212E00
429.01	3.1348E00
429.21	3.0835E00
429.42	3.1609E00
429.62	3.1505E00
429.83	3.1341E00
430.03	3.1112E00
430.24	3.1693E00
430.44	3.1513E00
430.65	3.2069E00
430.85	3.2391E00
431.06	3.2322E00
431.26	3.2999E00
431.47	3.2760E00
431.67	3.3894E00
431.88	3.3848E00
432.08	3.4250E00
432.29	3.4506E00
432.49	3.4527E00
432.70	3.4799E00
432.90	3.5578E00
433.11	3.5780E00
433.31	3.5348E00
433.52	3.5925E00
433.72	3.5961E00
433.93	3.6279E00
434.13	3.6342E00
434.34	3.6960E00
434.54	3.6576E00
434.74	3.6819E00
434.95	3.6969E00
435.15	3.6824E00
435.36	3.7043E00
435.56	3.6765E00
435.77	3.7138E00
435.97	3.6825E00
436.18	3.7756E00
436.38	3.7294E00
436.59	3.7081E00
436.79	3.7398E00
437.00	3.7337E00
437.20	3.7148E00
437.41	3.7063E00
437.61	3.7262E00
437.81	3.7306E00
438.02	3.7380E00
438.22	3.7687E00
438.43	3.7392E00
438.63	3.8175E00
438.84	3.7795E00
439.04	3.7962E00
439.25	3.8260E00
439.45	3.8244E00
439.66	3.8461E00
439.86	3.8806E00
440.06	3.9538E00
440.27	3.9220E00
440.47	3.9207E00
440.68	4.0040E00
440.88	4.0070E00
441.09	4.0585E00
441.29	4.0721E00
441.49	4.0902E00
441.70	4.1386E00
441.90	4.1361E00
442.11	4.1641E00
442.31	4.1884E00
442.52	4.1578E00
442.72	4.1619E00
442.92	4.1354E00
443.13	4.1846E00
443.33	4.1327E00
443.54	4.1790E00
443.74	4.1756E00
443.95	4.2062E00
444.15	4.1841E00
444.35	4.2142E00
444.56	4.1894E00
444.76	4.1742E00
444.97	4.2527E00
445.17	4.2356E00
445.37	4.2850E00
445.58	4.2337E00
445.78	4.2546E00
445.99	4.2269E00
446.19	4.2412E00
446.39	4.2695E00
446.60	4.2651E00
446.80	4.2858E00
447.01	4.3493E00
447.21	4.3953E00
447.41	4.3634E00
447.62	4.4227E00
447.82	4.4145E00
448.03	4.4524E00
448.23	4.4691E00
448.43	4.4969E00
448.64	4.5172E00
448.84	4.5241E00
449.05	4.5128E00
449.25	4.5418E00
449.45	4.5154E00
449.66	4.5264E00
449.86	4.5364E00
450.07	4.5064E00
450.27	4.5381E00
450.47	4.5216E00
450.68	4.5344E00
450.88	4.5114E00
451.08	4.5263E00
451.29	4.5319E00
451.49	4.5242E00
451.70	4.5108E00
451.90	4.5161E00
452.10	4.5011E00
452.31	4.4546E00
452.51	4.4956E00
452.71	4.4891E00
452.92	4.4787E00
453.12	4.5102E00
453.32	4.4921E00
453.53	4.4513E00
453.73	4.4718E00
453.93	4.4852E00
454.14	4.5469E00
454.34	4.5403E00
454.55	4.5533E00
454.75	4.5472E00
454.95	4.5231E00
455.16	4.5814E00
455.36	4.5446E00
455.56	4.6029E00
455.77	4.5987E00
455.97	4.5892E00
456.17	4.5798E00
456.38	4.6093E00
456.58	4.6399E00
456.78	4.6009E00
456.99	4.5665E00
457.19	4.5994E00
457.39	4.5967E00
457.60	4.6136E00
457.80	4.6112E00
458.00	4.6001E00
458.21	4.6350E00
458.41	4.6304E00
458.61	4.6127E00
458.82	4.6165E00
459.02	4.6069E00
459.22	4.6739E00
459.43	4.6673E00
459.63	4.6540E00
459.83	4.6363E00
460.03	4.6608E00
460.24	4.6862E00
460.44	4.6614E00
460.64	4.6481E00
460.85	4.6896E00
461.05	4.6828E00
461.25	4.6874E00
461.46	4.6754E00
461.66	4.6630E00
461.86	4.6910E00
462.07	4.6959E00
462.27	4.6870E00
462.47	4.7072E00
462.67	4.6737E00
462.88	4.6893E00
463.08	4.6418E00
463.28	4.6658E00
463.49	4.6847E00
463.69	4.6597E00
463.89	4.6601E00
464.09	4.6579E00
464.30	4.6260E00
464.50	4.6456E00
464.70	4.6439E00
464.91	4.5818E00
465.11	4.5852E00
465.31	4.5931E00
465.51	4.6219E00
465.72	4.6014E00
465.92	4.5978E00
466.12	4.5732E00
466.33	4.5971E00
466.53	4.5767E00
466.73	4.5567E00
466.93	4.5813E00
467.14	4.5497E00
467.34	4.6133E00
467.54	4.5760E00
467.74	4.5808E00
467.95	4.5774E00
468.15	4.5669E00
468.35	4.5953E00
468.55	4.6135E00
468.76	4.6167E00
468.96	4.5715E00
469.16	4.6136E00
469.37	4.6086E00
469.57	4.6129E00
469.77	4.5931E00
469.97	4.6205E00
470.18	4.6358E00
470.38	4.6425E00
470.58	4.6384E00
470.78	4.6618E00
470.99	4.6626E00
471.19	4.6535E00
471.39	4.6791E00
471.59	4.6568E00
471.79	4.6856E00
472.00	4.6961E00
472.20	4.7091E00
472.40	4.6861E00
472.60	4.6902E00
472.81	4.7260E00
473.01	4.7167E00
473.21	4.6868E00
473.41	4.6554E00
473.62	4.7141E00
473.82	4.7300E00
474.02	4.6983E00
474.22	4.7077E00
474.42	4.7573E00
474.63	4.7356E00
474.83	4.7262E00
475.03	4.7319E00
475.23	4.7464E00
475.44	4.7333E00
475.64	4.7419E00
475.84	4.7467E00
476.04	4.7406E00
476.24	4.7494E00
476.45	4.7637E00
476.65	4.7542E00
476.85	4.7558E00
477.05	4.7890E00
477.25	4.8108E00
477.46	4.8036E00
477.66	4.8029E00
477.86	4.8398E00
478.06	4.8460E00
478.26	4.8551E00
478.47	4.8457E00
478.67	4.8812E00
478.87	4.8542E00
479.07	4.8381E00
479.27	4.8626E00
479.47	4.8726E00
479.68	4.8715E00
479.88	4.8783E00
480.08	4.8800E00
480.28	4.8851E00
480.48	4.8842E00
480.69	4.8874E00
480.89	4.8697E00
481.09	4.8665E00
481.29	4.8874E00
481.49	4.8094E00
481.69	4.8477E00
481.90	4.8215E00
482.10	4.8009E00
482.30	4.8009E00
482.50	4.7645E00
482.70	4.7293E00
482.90	4.7082E00
483.11	4.6799E00
483.31	4.6526E00
483.51	4.5916E00
483.71	4.5727E00
483.91	4.5566E00
484.11	4.5357E00
484.32	4.5132E00
484.52	4.5007E00
484.72	4.4757E00
484.92	4.4536E00
485.12	4.4391E00
485.32	4.4292E00
485.52	4.4166E00
485.73	4.3921E00
485.93	4.3855E00
486.13	4.3916E00
486.33	4.4102E00
486.53	4.4302E00
486.73	4.4486E00
486.93	4.4561E00
487.14	4.4992E00
487.34	4.5162E00
487.54	4.5321E00
487.74	4.5622E00
487.94	4.5438E00
488.14	4.5868E00
488.34	4.6010E00
488.54	4.6096E00
488.75	4.6183E00
488.95	4.6402E00
489.15	4.6462E00
489.35	4.6465E00
489.55	4.6524E00
489.75	4.6677E00
489.95	4.6646E00
490.15	4.6697E00
490.36	4.6879E00
490.56	4.6874E00
490.76	4.7042E00
490.96	4.7029E00
491.16	4.7111E00
491.36	4.7071E00
491.56	4.7040E00
491.76	4.6841E00
491.96	4.7179E00
492.17	4.7180E00
492.37	4.7346E00
492.57	4.7482E00
492.77	4.7542E00
492.97	4.7792E00
493.17	4.7723E00
493.37	4.7791E00
493.57	4.7871E00
493.77	4.7957E00
493.97	4.8244E00
494.17	4.8117E00
494.38	4.8247E00
494.58	4.8154E00
494.78	4.8141E00
494.98	4.8190E00
495.18	4.8294E00
495.38	4.8234E00
495.58	4.8276E00
495.78	4.8286E00
495.98	4.8376E00
496.18	4.8309E00
496.38	4.8145E00
496.58	4.7959E00
496.78	4.8266E00
496.99	4.7976E00
497.19	4.8129E00
497.39	4.8135E00
497.59	4.7879E00
497.79	4.7590E00
497.99	4.7656E00
498.19	4.7624E00
498.39	4.7588E00
498.59	4.7294E00
498.79	4.7191E00
498.99	4.7110E00
499.19	4.7160E00
499.39	4.7110E00
499.59	4.6942E00
499.79	4.6887E00
499.99	4.6810E00
500.19	4.6893E00
500.40	4.6701E00
500.60	4.6790E00
500.80	4.6694E00
501.00	4.6601E00
501.20	4.6561E00
501.40	4.6756E00
501.60	4.6607E00
501.80	4.6676E00
502.00	4.6840E00
502.20	4.6824E00
502.40	4.6925E00
502.60	4.6826E00
502.80	4.7319E00
503.00	4.7306E00
503.20	4.7313E00
503.40	4.7344E00
503.60	4.7538E00
503.80	4.7786E00
504.00	4.7790E00
504.20	4.7982E00
504.40	4.8012E00
504.60	4.8196E00
504.80	4.8266E00
505.00	4.8322E00
505.20	4.8493E00
505.40	4.8450E00
505.60	4.8456E00
505.80	4.8599E00
506.00	4.8627E00
506.20	4.8673E00
506.40	4.8710E00
506.60	4.8728E00
506.80	4.8653E00
507.00	4.8809E00
507.20	4.8908E00
507.40	4.9027E00
507.60	4.8860E00
507.80	4.8985E00
508.00	4.9051E00
508.20	4.9253E00
508.40	4.9247E00
508.60	4.9175E00
508.80	4.9106E00
509.00	4.9508E00
509.20	4.9419E00
509.40	4.9401E00
509.60	4.9487E00
509.80	4.9385E00
510.00	4.9619E00
510.20	4.9579E00
510.40	4.9579E00
510.60	4.9442E00
510.80	4.9364E00
511.00	4.9337E00
511.20	4.9588E00
511.40	4.9370E00
511.60	4.9397E00
511.80	4.9465E00
512.00	4.9438E00
512.20	4.9520E00
512.40	4.9366E00
512.60	4.9380E00
512.80	4.9339E00
513.00	4.9441E00
513.20	4.9327E00
513.40	4.9130E00
513.59	4.8961E00
513.79	4.9086E00
513.99	4.8988E00
514.19	4.8966E00
514.39	4.8780E00
514.59	4.8842E00
514.79	4.8658E00
514.99	4.8635E00
515.19	4.8682E00
515.39	4.8731E00
515.59	4.8744E00
515.79	4.8513E00
515.99	4.8812E00
516.19	4.8815E00
516.39	4.8802E00
516.59	4.8963E00
516.79	4.9222E00
516.98	4.9137E00
517.18	4.9574E00
517.38	4.9779E00
517.58	5.0047E00
517.78	5.0359E00
517.98	5.0687E00
518.18	5.1087E00
518.38	5.1720E00
518.58	5.1926E00
518.78	5.2283E00
518.98	5.2640E00
519.18	5.3089E00
519.38	5.3598E00
519.57	5.3867E00
519.77	5.4136E00
519.97	5.4661E00
520.17	5.4970E00
520.37	5.5285E00
520.57	5.5734E00
520.77	5.6033E00
520.97	5.6303E00
521.17	5.6590E00
521.37	5.7018E00
521.57	5.7411E00
521.76	5.7517E00
521.96	5.7916E00
522.16	5.8069E00
522.36	5.8455E00
522.56	5.8283E00
522.76	5.8534E00
522.96	5.8833E00
523.16	5.8806E00
523.36	5.9044E00
523.55	5.8957E00
523.75	5.9095E00
523.95	5.9128E00
524.15	5.9043E00
524.35	5.9177E00
524.55	5.9241E00
524.75	5.9357E00
524.95	5.9530E00
525.14	5.9501E00
525.34	5.9498E00
525.54	5.9440E00
525.74	5.9660E00
525.94	5.9740E00
526.14	6.0040E00
526.34	6.0116E00
526.54	6.0483E00
526.73	6.0443E00
526.93	6.0922E00
527.13	6.1230E00
527.33	6.1582E00
527.53	6.1983E00
527.73	6.2135E00
527.93	6.2658E00
528.12	6.2827E00
528.32	6.3281E00
528.52	6.3780E00
528.72	6.4181E00
528.92	6.4367E00
529.12	6.4581E00
529.32	6.4837E00
529.51	6.5069E00
529.71	6.5288E00
529.91	6.5390E00
530.11	6.5654E00
530.31	6.5847E00
530.51	6.5793E00
530.70	6.5788E00
530.90	6.6060E00
531.10	6.6043E00
531.30	6.6204E00
531.50	6.6209E00
531.70	6.6361E00
531.89	6.6283E00
532.09	6.6325E00
532.29	6.6329E00
532.49	6.6630E00
532.69	6.6660E00
532.88	6.6734E00
533.08	6.6694E00
533.28	6.6984E00
533.48	6.7358E00
533.68	6.7315E00
533.88	6.7591E00
534.07	6.7657E00
534.27	6.7751E00
534.47	6.8049E00
534.67	6.7837E00
534.87	6.8269E00
535.06	6.8325E00
535.26	6.8275E00
535.46	6.8306E00
535.66	6.8812E00
535.86	6.8550E00
536.05	6.8602E00
536.25	6.8702E00
536.45	6.8749E00
536.65	6.8718E00
536.85	6.8610E00
537.04	6.8654E00
537.24	6.8803E00
537.44	6.8287E00
537.64	6.8087E00
537.83	6.8490E00
538.03	6.8577E00
538.23	6.8654E00
538.43	6.8587E00
538.63	6.8324E00
538.82	6.8419E00
539.02	6.8375E00
539.22	6.8544E00
539.42	6.8356E00
539.61	6.8481E00
539.81	6.8484E00
540.01	6.8332E00
540.21	6.8427E00
540.41	6.8433E00
540.60	6.8550E00
540.80	6.8647E00
541.00	6.8726E00
541.20	6.9078E00
541.39	6.9148E00
541.59	6.9279E00
541.79	6.9510E00
541.99	6.9829E00
542.18	6.9807E00
542.38	7.0039E00
542.58	7.0158E00
542.78	7.0403E00
542.97	7.0303E00
543.17	7.0711E00
543.37	7.0619E00
543.57	7.1047E00
543.76	7.1367E00
543.96	7.1427E00
544.16	7.1389E00
544.36	7.1612E00
544.55	7.1938E00
544.75	7.1933E00
544.95	7.2146E00
545.14	7.1842E00
545.34	7.2326E00
545.54	7.2211E00
545.74	7.2350E00
545.93	7.2630E00
546.13	7.2632E00
546.33	7.2576E00
546.53	7.2530E00
546.72	7.2987E00
546.92	7.3063E00
547.12	7.2982E00
547.31	7.3208E00
547.51	7.3263E00
547.71	7.3593E00
547.91	7.3729E00
548.10	7.3457E00
548.30	7.3663E00
548.50	7.4097E00
548.69	7.4167E00
548.89	7.4100E00
549.09	7.4185E00
549.29	7.4195E00
549.48	7.4689E00
549.68	7.4245E00
549.88	7.4665E00
550.07	7.4720E00
550.27	7.4762E00
550.47	7.3862E00
550.66	7.5173E00
550.86	7.4660E00
551.06	7.5267E00
551.25	7.4909E00
551.45	7.5297E00
551.65	7.5380E00
551.85	7.5627E00
552.04	7.5124E00
552.24	7.5588E00
552.44	7.5386E00
552.63	7.5421E00
552.83	7.5636E00
553.03	7.5462E00
553.22	7.6000E00
553.42	7.5741E00
553.62	7.6227E00
553.81	7.5930E00
554.01	7.6108E00
554.21	7.5875E00
554.40	7.6072E00
554.60	7.6000E00
554.80	7.6088E00
554.99	7.6071E00
555.19	7.5922E00
555.39	7.5991E00
555.58	7.5698E00
555.78	7.5703E00
555.98	7.5460E00
556.17	7.5344E00
556.37	7.5238E00
556.56	7.5188E00
556.76	7.5108E00
556.96	7.4885E00
557.15	7.4940E00
557.35	7.4806E00
557.55	7.4728E00
557.74	7.4632E00
557.94	7.4736E00
558.14	7.4821E00
558.33	7.4559E00
558.53	7.4516E00
558.73	7.4706E00
558.92	7.4576E00
559.12	7.5040E00
559.31	7.5194E00
559.51	7.5451E00
559.71	7.5300E00
559.90	7.5508E00
560.10	7.5634E00
560.30	7.5716E00
560.49	7.5791E00
560.69	7.6096E00
560.88	7.6378E00
561.08	7.6048E00
561.28	7.6197E00
561.47	7.6483E00
561.67	7.6589E00
561.86	7.6457E00
562.06	7.6674E00
562.26	7.6901E00
562.45	7.6728E00
562.65	7.6883E00
562.84	7.6587E00
563.04	7.6717E00
563.24	7.6687E00
563.43	7.6904E00
563.63	7.6936E00
563.82	7.6718E00
564.02	7.6902E00
564.22	7.6977E00
564.41	7.6620E00
564.61	7.6707E00
564.80	7.6765E00
565.00	7.6538E00
565.20	7.6795E00
565.39	7.6344E00
565.59	7.6186E00
565.78	7.6410E00
565.98	7.6186E00
566.18	7.6561E00
566.37	7.6401E00
566.57	7.6250E00
566.76	7.6159E00
566.96	7.6416E00
567.15	7.6089E00
567.35	7.6434E00
567.55	7.6219E00
567.74	7.6205E00
567.94	7.6005E00
568.13	7.6160E00
568.33	7.6344E00
568.52	7.6245E00
568.72	7.6077E00
568.91	7.5996E00
569.11	7.6065E00
569.31	7.6408E00
569.50	7.6124E00
569.70	7.6344E00
569.89	7.6350E00
570.09	7.6303E00
570.28	7.6309E00
570.48	7.6471E00
570.67	7.6833E00
570.87	7.6450E00
571.07	7.6598E00
571.26	7.6977E00
571.46	7.7057E00
571.65	7.7210E00
571.85	7.7393E00
572.04	7.7251E00
572.24	7.7641E00
572.43	7.7401E00
572.63	7.7751E00
572.82	7.7570E00
573.02	7.7823E00
573.21	7.7607E00
573.41	7.7791E00
573.60	7.8012E00
573.80	7.7938E00
573.99	7.7781E00
574.19	7.8081E00
574.38	7.7850E00
574.58	7.7973E00
574.78	7.7667E00
574.97	7.7974E00
575.17	7.7836E00
575.36	7.7693E00
575.56	7.7527E00
575.75	7.7930E00
575.95	7.7673E00
576.14	7.7599E00
576.34	7.7956E00
576.53	7.7724E00
576.73	7.7818E00
576.92	7.7643E00
577.12	7.8158E00
577.31	7.7632E00
577.51	7.8313E00
577.70	7.8140E00
577.90	7.8213E00
578.09	7.8472E00
578.29	7.8260E00
578.48	7.8714E00
578.68	7.8525E00
578.87	7.9117E00
579.06	7.8789E00
579.26	7.9120E00
579.45	7.9039E00
579.65	7.9627E00
579.84	7.9463E00
580.04	7.9835E00
580.23	8.0134E00
580.43	7.9773E00
580.62	8.0188E00
580.82	8.0347E00
581.01	8.0316E00
581.21	8.0447E00
581.40	8.0449E00
581.60	8.0892E00
581.79	8.1033E00
581.99	8.0857E00
582.18	8.0878E00
582.37	8.1135E00
582.57	8.1129E00
582.76	8.1349E00
582.96	8.1339E00
583.15	8.1269E00
583.35	8.1243E00
583.54	8.1310E00
583.74	8.1270E00
583.93	8.1050E00
584.12	8.0821E00
584.32	8.1263E00
584.51	8.1018E00
584.71	8.0624E00
584.90	8.0559E00
585.10	8.0514E00
585.29	8.0361E00
585.49	8.0236E00
585.68	8.0135E00
585.87	7.9789E00
586.07	7.9425E00
586.26	7.9119E00
586.46	7.8823E00
586.65	7.8540E00
586.85	7.8414E00
587.04	7.7783E00
587.23	7.8028E00
587.43	7.7731E00
587.62	7.7034E00
587.82	7.7343E00
588.01	7.6880E00
588.20	7.6906E00
588.40	7.6530E00
588.59	7.6669E00
588.79	7.6672E00
588.98	7.6793E00
589.18	7.6537E00
589.37	7.6798E00
589.56	7.6487E00
589.76	7.6491E00
589.95	7.7089E00
590.15	7.7089E00
590.34	7.7031E00
590.53	7.7715E00
590.73	7.7614E00
590.92	7.7847E00
591.11	7.8301E00
591.31	7.8466E00
591.50	7.8752E00
591.70	7.8775E00
591.89	7.9137E00
592.08	7.8913E00
592.28	7.8862E00
592.47	7.9393E00
592.67	7.9434E00
592.86	7.9541E00
593.05	7.9349E00
593.25	7.9846E00
593.44	7.9796E00
593.63	8.0264E00
593.83	8.0024E00
594.02	8.0601E00
594.22	8.0638E00
594.41	8.0978E00
594.60	8.0736E00
594.80	8.0926E00
594.99	8.1045E00
595.18	8.1106E00
595.38	8.1122E00
595.57	8.1406E00
595.76	8.1579E00
595.96	8.1659E00
596.15	8.1400E00
596.34	8.2244E00
596.54	8.2267E00
596.73	8.2208E00
596.93	8.2508E00
597.12	8.2442E00
597.31	8.2826E00
597.51	8.2737E00
597.70	8.2868E00
597.89	8.2782E00
598.09	8.2752E00
598.28	8.3522E00
598.47	8.3018E00
598.67	8.3234E00
598.86	8.3022E00
599.05	8.3604E00
599.25	8.3434E00
599.44	8.3722E00
599.63	8.3919E00
599.83	8.3704E00
600.02	8.3850E00
600.21	8.4035E00
600.41	8.4236E00
600.60	8.4069E00
600.79	8.4445E00
600.98	8.4587E00
601.18	8.4998E00
601.37	8.4633E00
601.56	8.4842E00
601.76	8.5580E00
601.95	8.5158E00
602.14	8.5384E00
602.34	8.5399E00
602.53	8.5914E00
602.72	8.5625E00
602.92	8.6029E00
603.11	8.5971E00
603.30	8.6350E00
603.49	8.6257E00
603.69	8.6901E00
603.88	8.6662E00
604.07	8.6890E00
604.27	8.6762E00
604.46	8.6584E00
604.65	8.6834E00
604.84	8.6797E00
605.04	8.6946E00
605.23	8.6915E00
605.42	8.6893E00
605.62	8.7062E00
605.81	8.6812E00
606.00	8.6934E00
606.19	8.7127E00
606.39	8.7153E00
606.58	8.6776E00
606.77	8.6848E00
606.97	8.6637E00
607.16	8.6978E00
607.35	8.7038E00
607.54	8.6804E00
607.74	8.7050E00
607.93	8.7138E00
608.12	8.6761E00
608.31	8.6955E00
608.51	8.7015E00
608.70	8.6840E00
608.89	8.6852E00
609.08	8.6712E00
609.28	8.6940E00
609.47	8.7013E00
609.66	8.6994E00
609.85	8.7088E00
610.05	8.7110E00
610.24	8.6905E00
610.43	8.7055E00
610.62	8.6997E00
610.82	8.6949E00
611.01	8.7248E00
611.20	8.7108E00
611.39	8.7230E00
611.59	8.7159E00
611.78	8.7339E00
611.97	8.7296E00
612.16	8.7709E00
612.35	8.7195E00
612.55	8.7258E00
612.74	8.7531E00
612.93	8.7426E00
613.12	8.7067E00
613.32	8.7296E00
613.51	8.7364E00
613.70	8.7420E00
613.89	8.7469E00
614.08	8.7642E00
614.28	8.7521E00
614.47	8.7435E00
614.66	8.7674E00
614.85	8.8031E00
615.04	8.8026E00
615.24	8.8502E00
615.43	8.8218E00
615.62	8.8196E00
615.81	8.8393E00
616.00	8.8112E00
616.20	8.8565E00
616.39	8.8868E00
616.58	8.8969E00
616.77	8.9259E00
616.96	8.9900E00
617.16	9.0106E00
617.35	9.0240E00
617.54	9.0295E00
617.73	9.0425E00
617.92	9.0766E00
618.12	9.1310E00
618.31	9.1419E00
618.50	9.1735E00
618.69	9.1774E00
618.88	9.2372E00
619.07	9.2293E00
619.27	9.2477E00
619.46	9.2690E00
619.65	9.3185E00
619.84	9.2904E00
620.03	9.2948E00
620.22	9.3541E00
620.42	9.2887E00
620.61	9.3811E00
620.80	9.3614E00
620.99	9.3644E00
621.18	9.3972E00
621.37	9.3579E00
621.57	9.3146E00
621.76	9.3758E00
621.95	9.3576E00
622.14	9.3297E00
622.33	9.3144E00
622.52	9.3365E00
622.71	9.3622E00
622.91	9.3789E00
623.10	9.3619E00
623.29	9.3541E00
623.48	9.3364E00
623.67	9.3618E00
623.86	9.3585E00
624.05	9.3529E00
624.25	9.3212E00
624.44	9.3520E00
624.63	9.3706E00
624.82	9.3463E00
625.01	9.3265E00
625.20	9.3708E00
625.39	9.3127E00
625.58	9.3652E00
625.78	9.3703E00
625.97	9.3151E00
626.16	9.3417E00
626.35	9.3405E00
626.54	9.3728E00
626.73	9.3716E00
626.92	9.3438E00
627.11	9.3437E00
627.31	9.3406E00
627.50	9.3395E00
627.69	9.3592E00
627.88	9.3723E00
628.07	9.2882E00
628.26	9.3361E00
628.45	9.3290E00
628.64	9.3490E00
628.83	9.3457E00
629.02	9.2931E00
629.22	9.3915E00
629.41	9.3360E00
629.60	9.2900E00
629.79	9.3741E00
629.98	9.3259E00
630.17	9.3531E00
630.36	9.3407E00
630.55	9.3550E00
630.74	9.3627E00
630.93	9.3922E00
631.12	9.3434E00
631.31	9.3551E00
631.51	9.3959E00
631.70	9.3877E00
631.89	9.3504E00
632.08	9.3609E00
632.27	9.3798E00
632.46	9.3722E00
632.65	9.3797E00
632.84	9.3497E00
633.03	9.4243E00
633.22	9.3949E00
633.41	9.4312E00
633.60	9.4300E00
633.79	9.4028E00
633.98	9.3716E00
634.17	9.4219E00
634.37	9.4242E00
634.56	9.4529E00
634.75	9.4042E00
634.94	9.4580E00
635.13	9.4300E00
635.32	9.4636E00
635.51	9.4678E00
635.70	9.4261E00
635.89	9.5139E00
636.08	9.4544E00
636.27	9.4291E00
636.46	9.4755E00
636.65	9.4477E00
636.84	9.4132E00
637.03	9.4649E00
637.22	9.4520E00
637.41	9.4377E00
637.60	9.4549E00
637.79	9.4623E00
637.98	9.4441E00
638.17	9.4382E00
638.36	9.4056E00
638.55	9.3725E00
638.74	9.3707E00
638.93	9.3772E00
639.12	9.3555E00
639.31	9.3674E00
639.50	9.3413E00
639.69	9.3322E00
639.88	9.3709E00
640.07	9.3372E00
640.26	9.3751E00
640.45	9.3641E00
640.64	9.3769E00
640.83	9.3791E00
641.02	9.4044E00
641.21	9.3636E00
641.40	9.2897E00
641.59	9.3546E00
641.78	9.3589E00
641.97	9.3421E00
642.16	9.3562E00
642.35	9.3419E00
642.54	9.3364E00
642.73	9.3131E00
642.92	9.2297E00
643.11	9.3217E00
643.30	9.3093E00
643.49	9.2614E00
643.68	9.2621E00
643.87	9.2154E00
644.06	9.2414E00
644.25	9.2003E00
644.44	9.1878E00
644.63	9.1646E00
644.82	9.1497E00
645.01	9.1620E00
645.20	9.1401E00
645.39	9.1100E00
645.58	9.0767E00
645.77	9.0617E00
645.96	9.0852E00
646.15	9.0434E00
646.34	9.0283E00
646.53	9.0100E00
646.72	9.0105E00
646.91	8.9605E00
647.10	9.0325E00
647.29	8.9754E00
647.47	8.9927E00
647.66	8.9655E00
647.85	8.9345E00
648.04	8.9356E00
648.23	8.9358E00
648.42	9.0166E00
648.61	8.8955E00
648.80	8.9427E00
648.99	8.9628E00
649.18	8.9086E00
649.37	8.9618E00
649.56	8.9505E00
649.75	8.9443E00
649.94	9.0028E00
650.13	9.0029E00
650.31	9.0285E00
650.50	9.0037E00
650.69	9.0297E00
650.88	9.0167E00
651.07	9.0266E00
651.26	9.0440E00
651.45	9.0954E00
651.64	9.0509E00
651.83	9.0112E00
652.02	9.0251E00
652.21	8.9787E00
652.40	8.9595E00
652.58	9.0189E00
652.77	8.9077E00
652.96	8.8689E00
653.15	8.8870E00
653.34	8.8523E00
653.53	8.8212E00
653.72	8.7826E00
653.91	8.7015E00
654.10	8.6898E00
654.29	8.6260E00
654.47	8.6763E00
654.66	8.5635E00
654.85	8.5654E00
655.04	8.5186E00
655.23	8.5420E00
655.42	8.4747E00
655.61	8.5186E00
655.80	8.4973E00
655.98	8.5386E00
656.17	8.5451E00
656.36	8.5795E00
656.55	8.5692E00
656.74	8.6611E00
656.93	8.6761E00
657.12	8.7217E00
657.31	8.7140E00
657.49	8.8348E00
657.68	8.8444E00
657.87	8.8186E00
658.06	8.9530E00
658.25	8.9362E00
658.44	9.0109E00
658.63	9.0107E00
658.81	9.0239E00
659.00	9.0910E00
659.19	9.0965E00
659.38	9.1918E00
659.57	9.2041E00
659.76	9.1839E00
659.95	9.2687E00
660.13	9.1942E00
660.32	9.2682E00
660.51	9.2640E00
660.70	9.3022E00
660.89	9.2857E00
661.08	9.3003E00
661.26	9.2785E00
661.45	9.3230E00
661.64	9.3108E00
661.83	9.3017E00
662.02	9.3196E00
662.21	9.3507E00
662.39	9.3812E00
662.58	9.3455E00
662.77	9.4092E00
662.96	9.3691E00
663.15	9.3327E00
663.33	9.3956E00
663.52	9.3617E00
663.71	9.3643E00
663.90	9.3665E00
664.09	9.3229E00
664.28	9.3610E00
664.46	9.3314E00
664.65	9.3464E00
664.84	9.3166E00
665.03	9.3681E00
665.22	9.3851E00
665.40	9.3934E00
665.59	9.3579E00
665.78	9.3563E00
665.97	9.3526E00
666.16	9.3860E00
666.34	9.3993E00
666.53	9.3342E00
666.72	9.3968E00
666.91	9.3761E00
667.09	9.3782E00
667.28	9.4145E00
667.47	9.4029E00
667.66	9.3855E00
667.85	9.3853E00
668.03	9.2646E00
668.22	9.4215E00
668.41	9.4005E00
668.60	9.3188E00
668.78	9.4201E00
668.97	9.3787E00
669.16	9.3419E00
669.35	9.3941E00
669.54	9.3212E00
669.72	9.3911E00
669.91	9.3582E00
670.10	9.3705E00
670.29	9.3725E00
670.47	9.3961E00
670.66	9.4189E00
670.85	9.3640E00
671.04	9.3159E00
671.22	9.2995E00
671.41	9.3357E00
671.60	9.3338E00
671.79	9.3385E00
671.97	9.3014E00
672.16	9.3676E00
672.35	9.3368E00
672.54	9.3421E00
672.72	9.3016E00
672.91	9.2746E00
673.10	9.3049E00
673.28	9.2948E00
673.47	9.3090E00
673.66	9.3094E00
673.85	9.3604E00
674.03	9.3216E00
674.22	9.3126E00
674.41	9.2904E00
674.60	9.2815E00
674.78	9.2296E00
674.97	9.2566E00
675.16	9.3855E00
675.34	9.3330E00
675.53	9.3005E00
675.72	9.2615E00
675.91	9.3642E00
676.09	9.3126E00
676.28	9.3497E00
676.47	9.3171E00
676.65	9.2663E00
676.84	9.3153E00
677.03	9.3464E00
677.22	9.2859E00
677.40	9.3238E00
677.59	9.3056E00
677.78	9.2870E00
677.96	9.3063E00
678.15	9.3367E00
678.34	9.3735E00
678.52	9.2758E00
678.71	9.2941E00
678.90	9.3027E00
679.08	9.3077E00
679.27	9.2624E00
679.46	9.3349E00
679.64	9.2878E00
679.83	9.2588E00
680.02	9.2699E00
680.21	9.1714E00
680.39	9.2849E00
680.58	9.2331E00
680.77	9.1997E00
680.95	9.2016E00
681.14	9.1320E00
681.33	9.1838E00
681.51	9.2097E00
681.70	9.1801E00
681.89	9.1891E00
682.07	9.1340E00
682.26	9.0404E00
682.44	9.1230E00
682.63	9.0899E00
682.82	9.0863E00
683.00	8.9359E00
683.19	8.9707E00
683.38	8.9502E00
683.56	8.9250E00
683.75	8.8568E00
683.94	8.7433E00
684.12	8.6918E00
684.31	8.7063E00
684.50	8.6595E00
684.68	8.5438E00
684.87	8.4832E00
685.05	8.4432E00
685.24	8.3204E00
685.43	8.3017E00
685.61	8.2504E00
685.80	8.1577E00
685.99	8.1599E00
686.17	8.0426E00
686.36	8.0685E00
686.54	8.0183E00
686.73	7.9572E00
686.92	7.9339E00
687.10	7.8844E00
687.29	7.9214E00
687.48	7.8646E00
687.66	7.9450E00
687.85	7.8726E00
688.03	7.8993E00
688.22	7.8464E00
688.41	7.9273E00
688.59	7.8612E00
688.78	7.9487E00
688.96	7.9825E00
689.15	8.0310E00
689.34	7.9154E00
689.52	8.0790E00
689.71	8.0265E00
689.89	8.0705E00
690.08	8.1410E00
690.27	8.0988E00
690.45	8.0996E00
690.64	8.1015E00
690.82	8.0764E00
691.01	8.1434E00
691.19	8.1230E00
691.38	8.1449E00
691.57	8.1749E00
691.75	8.1007E00
691.94	8.1841E00
692.12	8.1356E00
692.31	8.1956E00
692.50	8.1599E00
692.68	8.2025E00
692.87	8.2336E00
693.05	8.2053E00
693.24	8.1359E00
693.42	8.1785E00
693.61	8.2084E00
693.79	8.2554E00
693.98	8.1966E00
694.17	8.2488E00
694.35	8.3062E00
694.54	8.3212E00
694.72	8.2986E00
694.91	8.3194E00
695.09	8.3356E00
695.28	8.3550E00
695.46	8.3864E00
695.65	8.4233E00
695.83	8.4352E00
696.02	8.4953E00
696.21	8.5087E00
696.39	8.4592E00
696.58	8.4947E00
696.76	8.3877E00
696.95	8.4500E00
697.13	8.4682E00
697.32	8.4860E00
697.50	8.4885E00
697.69	8.4907E00
697.87	8.5076E00
698.06	8.4965E00
698.24	8.4222E00
698.43	8.4274E00
698.61	8.5023E00
698.80	8.4267E00
698.98	8.4717E00
699.17	8.3225E00
699.35	8.4065E00
699.54	8.3514E00
699.72	8.2782E00
699.91	8.3807E00
700.09	8.3821E00
700.28	8.3973E00
700.46	8.4009E00
700.65	8.3660E00
700.83	8.4013E00
701.02	8.4249E00
701.20	8.2994E00
701.39	8.4506E00
701.57	8.4074E00
701.76	8.3569E00
701.94	8.4081E00
702.13	8.4353E00
702.31	8.3349E00
702.50	8.5691E00
702.68	8.5355E00
702.87	8.5669E00
703.05	8.5834E00
703.24	8.5579E00
703.42	8.4342E00
703.61	8.6111E00
703.79	8.6507E00
703.98	8.5453E00
704.16	8.5962E00
704.35	8.5715E00
704.53	8.6265E00
704.72	8.6364E00
704.90	8.6611E00
705.08	8.5926E00
705.27	8.7141E00
705.45	8.7001E00
705.64	8.7348E00
705.82	8.7207E00
706.01	8.7244E00
706.19	8.6851E00
706.38	8.7144E00
706.56	8.7920E00
706.75	8.7736E00
706.93	8.7467E00
707.11	8.6715E00
707.30	8.7841E00
707.48	8.7679E00
707.67	8.7026E00
707.85	8.7412E00
708.04	8.7749E00
708.22	8.7687E00
708.40	8.7170E00
708.59	8.6902E00
708.77	8.7954E00
708.96	8.7577E00
709.14	8.7837E00
709.33	8.7574E00
709.51	8.8032E00
709.69	8.8015E00
709.88	8.8246E00
710.06	8.8069E00
710.25	8.7457E00
710.43	8.7929E00
710.62	8.8333E00
710.80	8.7775E00
710.98	8.8021E00
711.17	8.7648E00
711.35	8.7871E00
711.54	8.7930E00
711.72	8.7141E00
711.90	8.7778E00
712.09	8.7607E00
712.27	8.6562E00
712.46	8.6949E00
712.64	8.6183E00
712.82	8.6936E00
713.01	8.6704E00
713.19	8.6239E00
713.37	8.5249E00
713.56	8.4675E00
713.74	8.4794E00
713.93	8.3790E00
714.11	8.2913E00
714.29	8.1663E00
714.48	8.2171E00
714.66	8.1474E00
714.85	8.0089E00
715.03	7.9507E00
715.21	7.8619E00
715.40	7.7349E00
715.58	7.6556E00
715.76	7.5142E00
715.95	7.4639E00
716.13	7.4568E00
716.31	7.3336E00
716.50	7.2338E00
716.68	7.1160E00
716.87	7.1042E00
717.05	7.0379E00
717.23	6.9125E00
717.42	6.9109E00
717.60	6.8381E00
717.78	6.8315E00
717.97	6.8032E00
718.15	6.7635E00
718.33	6.7172E00
718.52	6.7757E00
718.70	6.8122E00
718.88	6.7579E00
719.07	6.9092E00
719.25	6.8338E00
719.43	6.8984E00
719.62	6.8997E00
719.80	6.9214E00
719.98	7.0399E00
720.17	7.0227E00
720.35	7.0426E00
720.53	7.1274E00
720.72	7.1685E00
720.90	7.1342E00
721.08	7.1121E00
721.27	7.1512E00
721.45	7.1588E00
721.63	7.1430E00
721.82	7.1938E00
722.00	7.1336E00
722.18	7.1313E00
722.36	7.1909E00
722.55	7.1546E00
722.73	7.1413E00
722.91	7.1173E00
723.10	7.1431E00
723.28	7.0800E00
723.46	6.9409E00
723.65	7.0267E00
723.83	7.0109E00
724.01	6.9822E00
724.19	7.0301E00
724.38	7.0292E00
724.56	7.0505E00
724.74	7.0709E00
724.93	6.9480E00
725.11	6.9653E00
725.29	7.0393E00
725.47	7.0322E00
725.66	7.0249E00
725.84	7.0057E00
726.02	7.0260E00
726.21	7.0965E00
726.39	7.0252E00
726.57	7.0495E00
726.75	7.0336E00
726.94	7.1312E00
727.12	7.0654E00
727.30	7.0677E00
727.48	7.0391E00
727.67	7.1288E00
727.85	7.0839E00
728.03	7.1327E00
728.21	7.1914E00
728.40	7.1214E00
728.58	7.2414E00
728.76	7.1999E00
728.94	7.2633E00
729.13	7.3390E00
729.31	7.2870E00
729.49	7.3806E00
729.67	7.4053E00
729.86	7.4641E00
730.04	7.4185E00
730.22	7.5610E00
730.40	7.5834E00
730.59	7.6305E00
730.77	7.6829E00
730.95	7.8007E00
731.13	7.7938E00
731.31	7.8515E00
731.50	7.8146E00
731.68	8.0072E00
731.86	7.9806E00
732.04	8.0644E00
732.23	8.1634E00
732.41	8.1537E00
732.59	8.2127E00
732.77	8.2461E00
732.95	8.2742E00
733.14	8.2540E00
733.32	8.3833E00
733.50	8.3594E00
733.68	8.3661E00
733.86	8.3817E00
734.05	8.4445E00
734.23	8.4775E00
734.41	8.3670E00
734.59	8.4500E00
734.77	8.4721E00
734.96	8.3746E00
735.14	8.5353E00
735.32	8.5203E00
735.50	8.5207E00
735.68	8.6205E00
735.87	8.5680E00
736.05	8.6861E00
736.23	8.5074E00
736.41	8.6671E00
736.59	8.6466E00
736.77	8.6346E00
736.96	8.6322E00
737.14	8.5604E00
737.32	8.7047E00
737.50	8.7483E00
737.68	8.7238E00
737.87	8.7667E00
738.05	8.8257E00
738.23	8.6729E00
738.41	8.7349E00
738.59	8.7679E00
738.77	8.8095E00
738.95	8.8805E00
739.14	8.7631E00
739.32	8.7816E00
739.50	8.9123E00
739.68	8.7952E00
739.86	8.8482E00
740.04	8.8458E00
740.23	8.7738E00
740.41	8.9020E00
740.59	8.9125E00
740.77	8.9710E00
740.95	8.9299E00
741.13	8.8966E00
741.31	8.8755E00
741.50	8.8980E00
741.68	8.8765E00
741.86	8.8805E00
742.04	8.9773E00
742.22	9.0237E00
742.40	8.9963E00
742.58	9.0376E00
742.76	9.0572E00
742.95	8.9230E00
743.13	9.1036E00
743.31	9.0699E00
743.49	9.0316E00
743.67	9.1151E00
743.85	9.0942E00
744.03	9.0409E00
744.21	9.0904E00
744.39	9.0181E00
744.58	9.1115E00
744.76	9.1105E00
744.94	9.1662E00
745.12	9.1061E00
745.30	9.0618E00
745.48	9.1369E00
745.66	9.1608E00
745.84	9.0511E00
746.02	9.0422E00
746.20	9.0979E00
746.38	9.1291E00
746.57	9.2067E00
746.75	8.9907E00
746.93	9.1205E00
747.11	9.0130E00
747.29	9.0833E00
747.47	9.1547E00
747.65	9.1131E00
747.83	8.9768E00
748.01	9.0883E00
748.19	9.1069E00
748.37	9.0993E00
748.55	9.0850E00
748.73	9.0410E00
748.92	9.1010E00
749.10	9.0299E00
749.28	9.1233E00
749.46	9.0443E00
749.64	9.0024E00
749.82	9.0395E00
750.00	9.0976E00
750.18	9.0620E00
750.36	8.9627E00
750.54	9.0737E00
750.72	9.1226E00
750.90	9.1259E00
751.08	9.0768E00
751.26	9.1378E00
751.44	9.1440E00
751.62	9.1990E00
751.80	9.1096E00
751.98	9.1438E00
752.16	9.1725E00
752.34	9.1975E00
752.52	9.2418E00
752.71	9.0996E00
752.89	9.0883E00
753.07	9.2579E00
753.25	9.1028E00
753.43	9.2822E00
753.61	9.1773E00
753.79	9.3276E00
753.97	9.3020E00
754.15	9.3369E00
754.33	9.3771E00
754.51	9.3954E00
754.69	9.4094E00
754.87	9.3565E00
755.05	9.3715E00
755.23	9.4477E00
755.41	9.5047E00
755.59	9.1037E00
755.77	9.3292E00
755.95	9.2720E00
756.13	9.0927E00
756.31	9.1748E00
756.49	9.0991E00
756.67	8.9199E00
756.85	8.7908E00
757.03	8.6262E00
757.21	8.5004E00
757.39	8.3841E00
757.57	8.2471E00
757.75	7.9604E00
757.93	7.6747E00
758.11	7.5576E00
758.29	7.3756E00
758.47	7.1382E00
758.65	7.0018E00
758.83	6.9617E00
759.01	6.7132E00
759.18	6.4890E00
759.36	6.1798E00
759.54	6.1609E00
759.72	5.9350E00
759.90	5.9048E00
760.08	5.8035E00
760.26	5.7315E00
760.44	5.5521E00
760.62	5.4169E00
760.80	5.3887E00
760.98	5.5258E00
761.16	5.5056E00
761.34	5.4286E00
761.52	5.5620E00
761.70	5.4368E00
761.88	5.4927E00
762.06	5.5286E00
762.24	5.5444E00
762.42	5.6111E00
762.60	5.6600E00
762.78	5.7681E00
762.95	5.8047E00
763.13	5.9588E00
763.31	6.0807E00
763.49	6.1190E00
763.67	6.2574E00
763.85	6.2667E00
764.03	6.5706E00
764.21	6.6037E00
764.39	6.8256E00
764.57	7.0632E00
764.75	7.1586E00
764.93	7.4665E00
765.11	7.4434E00
765.28	7.7065E00
765.46	7.8074E00
765.64	7.8935E00
765.82	8.0865E00
766.00	8.2522E00
766.18	8.3720E00
766.36	8.4854E00
766.54	8.5677E00
766.72	8.7066E00
766.90	8.9553E00
767.07	8.8460E00
767.25	9.0330E00
767.43	9.1406E00
767.61	9.2962E00
767.79	9.3789E00
767.97	9.4057E00
768.15	9.4127E00
768.33	9.4119E00
768.51	9.5818E00
768.68	9.6269E00
768.86	9.6003E00
769.04	9.6426E00
769.22	9.8545E00
769.40	9.8606E00
769.58	9.7930E00
769.76	9.9900E00
769.94	9.9839E00
770.11	9.8703E00
770.29	9.9398E00
770.47	9.9395E00
770.65	9.9696E00
770.83	9.9517E00
771.01	1.0041E01
771.19	1.0039E01
771.36	9.9385E00
771.54	1.0036E01
771.72	9.9514E00
771.90	9.8570E00
772.08	9.9706E00
772.26	1.0041E01
772.44	9.8372E00
772.61	9.9500E00
772.79	9.8315E00
772.97	9.9715E00
773.15	1.0041E01
773.33	9.8530E00
773.51	9.9754E00
773.68	9.8514E00
773.86	9.7889E00
774.04	9.8553E00
774.22	9.7465E00
774.40	9.7992E00
774.58	9.8531E00
774.75	9.8153E00
774.93	9.6441E00
775.11	9.8187E00
775.29	9.6999E00
775.47	9.6119E00
775.64	9.7566E00
775.82	9.6794E00
776.00	9.7044E00
776.18	9.5936E00
776.36	9.5752E00
776.53	9.7398E00
776.71	9.5515E00
776.89	9.5213E00
777.07	9.5824E00
777.25	9.5331E00
777.42	9.5130E00
777.60	9.4367E00
777.78	9.5168E00
777.96	9.4394E00
778.14	9.5280E00
778.31	9.4261E00
778.49	9.2580E00
778.67	9.3087E00
778.85	9.3508E00
779.03	9.4023E00
779.20	9.3623E00
779.38	9.3081E00
779.56	9.1767E00
779.74	9.3129E00
779.91	9.1997E00
780.09	9.1650E00
780.27	9.0700E00
780.45	9.1172E00
780.62	9.1667E00
780.80	9.1862E00
780.98	9.0088E00
781.16	8.9232E00
781.34	9.0833E00
781.51	9.1055E00
781.69	9.1074E00
781.87	9.0454E00
782.05	8.9882E00
782.22	8.9872E00
782.40	8.9120E00
782.58	8.9431E00
782.76	8.8272E00
782.93	8.9452E00
783.11	9.0190E00
783.29	8.8334E00
783.47	8.8226E00
783.64	8.8561E00
783.82	8.7629E00
784.00	8.6117E00
784.17	8.7046E00
784.35	8.7036E00
784.53	8.6442E00
784.71	8.6992E00
784.88	8.5990E00
785.06	8.7155E00
785.24	8.5661E00
785.42	8.6238E00
785.59	8.5505E00
785.77	8.3542E00
785.95	8.4124E00
786.12	8.2996E00
786.30	8.3891E00
786.48	8.3428E00
786.65	8.2679E00
786.83	8.2726E00
787.01	8.2830E00
787.19	8.2253E00
787.36	8.2401E00
787.54	8.1728E00
787.72	8.2065E00
787.89	8.1622E00
788.07	8.1118E00
788.25	8.0496E00
788.42	8.0022E00
788.60	8.1034E00
788.78	7.9834E00
788.96	7.9693E00
789.13	7.8741E00
789.31	7.8874E00
789.49	7.8676E00
789.66	7.9412E00
789.84	7.8087E00
790.02	7.6622E00
790.19	7.7662E00
790.37	7.8149E00
790.55	7.7574E00
790.72	7.7479E00
790.90	7.8558E00
791.08	7.6666E00
791.25	7.6818E00
791.43	7.6831E00
791.61	7.6188E00
791.78	7.5997E00
791.96	7.4710E00
792.14	7.5814E00
792.31	7.6391E00
792.49	7.4172E00
792.67	7.6516E00
792.84	7.4619E00
793.02	7.4553E00
793.19	7.4087E00
793.37	7.5174E00
793.55	7.5093E00
793.72	7.4456E00
793.90	7.2795E00
794.08	7.3658E00
794.25	7.3694E00
794.43	7.2772E00
794.61	7.3276E00
794.78	7.3295E00
794.96	7.1895E00
795.13	7.2933E00
795.31	7.3043E00
795.49	7.1633E00
795.66	7.2644E00
795.84	7.1948E00
796.01	7.2079E00
796.19	7.1189E00
796.37	7.2271E00
796.54	7.1804E00
796.72	7.2223E00
796.90	7.1527E00
797.07	7.0683E00
797.25	7.1711E00
797.42	7.2477E00
797.60	7.2141E00
797.78	7.1508E00
797.95	7.0510E00
798.13	6.9818E00
798.30	7.1193E00
798.48	7.0668E00
798.66	7.1543E00
798.83	6.9626E00
799.01	7.0703E00
799.18	6.9854E00
799.36	7.1070E00
799.53	6.8533E00
799.71	7.0645E00
799.89	6.9506E00
800.06	6.9513E00
800.24	6.9468E00
800.41	6.7972E00
800.59	6.9938E00
800.76	6.8040E00
800.94	6.7789E00
801.12	6.8878E00
801.29	6.8481E00
801.47	6.8799E00
801.64	6.7290E00
801.82	6.8531E00
801.99	6.8278E00
802.17	6.8086E00
802.34	6.7534E00
802.52	6.7258E00
802.70	6.7620E00
802.87	6.6076E00
803.05	6.5488E00
803.22	6.7666E00
803.40	6.6268E00
803.57	6.6147E00
803.75	6.7351E00
803.92	6.6324E00
804.10	6.4721E00
804.27	6.4842E00
804.45	6.5515E00
804.63	6.5106E00
804.80	6.4388E00
804.98	6.5452E00
805.15	6.3624E00
805.33	6.6103E00
805.50	6.6313E00
805.68	6.5756E00
805.85	6.6320E00
806.03	6.5278E00
806.20	6.5496E00
806.38	6.2917E00
806.55	6.3556E00
806.73	6.5917E00
806.90	6.4311E00
807.08	6.3708E00
807.25	6.2426E00
807.43	6.3690E00
807.60	6.4207E00
807.78	6.2541E00
807.95	6.1189E00
808.13	6.1896E00
808.30	6.1334E00
808.48	6.2870E00
808.65	6.1910E00
808.83	6.3406E00
809.00	6.1677E00
809.18	6.2918E00
809.35	6.0390E00
809.53	6.1785E00
809.70	6.0814E00
809.88	6.0906E00
810.05	6.0340E00
810.23	6.0795E00
810.40	5.9913E00
810.57	5.9638E00
810.75	5.8321E00
810.92	5.8018E00
811.10	5.8133E00
811.27	5.6691E00
811.45	5.7122E00
811.62	5.6300E00
811.80	5.5253E00
811.97	5.6056E00
812.15	5.5849E00
812.32	5.5513E00
812.50	5.3087E00
812.67	5.6323E00
812.84	5.3010E00
813.02	5.3863E00
813.19	5.3401E00
813.37	5.3177E00
813.54	5.1400E00
813.72	5.1578E00
813.89	5.0117E00
814.07	5.0937E00
814.24	5.0962E00
814.41	5.0828E00
814.59	4.8765E00
814.76	4.8214E00
814.94	4.9092E00
815.11	4.9392E00
815.29	4.6065E00
815.46	4.6504E00
815.63	4.7038E00
815.81	4.7095E00
815.98	4.4711E00
816.16	4.4825E00
816.33	4.6709E00
816.50	4.7372E00
816.68	4.6347E00
816.85	4.5425E00
817.03	4.6480E00
817.20	4.5890E00
817.37	4.6820E00
817.55	4.5690E00
817.72	4.6268E00
817.90	4.4693E00
818.07	4.6127E00
818.24	4.4441E00
818.42	4.5160E00
818.59	4.5113E00
818.77	4.5105E00
818.94	4.6398E00
819.11	4.4420E00
819.29	4.6624E00
819.46	4.6309E00
819.64	4.4138E00
819.81	4.7111E00
819.98	4.6549E00
820.16	4.4912E00
820.33	4.6217E00
820.50	4.5847E00
820.68	4.4330E00
820.85	4.5525E00
821.02	4.5112E00
821.20	4.4006E00
821.37	4.5241E00
821.55	4.3005E00
821.72	4.4305E00
821.89	4.4533E00
822.07	4.5819E00
822.24	4.5645E00
822.41	4.3088E00
822.59	4.6766E00
822.76	4.6780E00
822.93	4.4663E00
823.11	4.5218E00
823.28	4.6121E00
823.45	4.5107E00
823.63	4.5339E00
823.80	4.6558E00
823.97	4.3442E00
824.15	4.6873E00
824.32	4.5603E00
824.49	4.8148E00
824.67	4.5887E00
824.84	4.6853E00
825.01	4.6817E00
825.19	4.6901E00
825.36	4.6870E00
825.53	4.8062E00
825.71	4.7448E00
825.88	4.7715E00
826.05	4.5740E00
826.23	4.7273E00
826.40	4.6259E00
826.57	4.6448E00
826.75	4.5890E00
826.92	4.4707E00
827.09	4.4836E00
827.26	4.7975E00
827.44	4.6415E00
827.61	4.7672E00
827.78	4.6630E00
827.96	4.4269E00
828.13	4.7687E00
828.30	4.6372E00
828.48	4.5580E00
828.65	4.5260E00
828.82	4.5500E00
828.99	4.5506E00
829.17	4.5821E00
829.34	4.3106E00
829.51	4.5301E00
829.68	4.7098E00
829.86	4.6371E00
830.03	4.5140E00
830.20	4.5865E00
830.38	4.5241E00
830.55	4.3953E00
830.72	4.5707E00
830.89	4.3630E00
831.07	4.3578E00
831.24	4.3792E00
831.41	4.4325E00
831.58	4.5613E00
831.76	4.6701E00
831.93	4.5699E00
832.10	4.5773E00
832.27	4.3371E00
832.45	4.3439E00
832.62	4.5499E00
832.79	4.4368E00
832.96	4.5758E00
833.14	4.3441E00
833.31	4.6609E00
833.48	4.5319E00
833.65	4.4275E00
833.83	4.6785E00
834.00	4.7158E00
834.17	4.5414E00
834.34	4.6278E00
834.51	4.5380E00
834.69	4.4596E00
834.86	4.6807E00
835.03	4.5270E00
835.20	4.6897E00
835.38	4.5729E00
835.55	4.6081E00
835.72	4.5235E00
835.89	4.8665E00
836.06	4.5378E00
836.24	4.5151E00
836.41	4.4093E00
836.58	4.6847E00
836.75	4.6467E00
836.92	4.5956E00
837.10	4.4693E00
837.27	4.5709E00
837.44	4.4665E00
837.61	4.7476E00
837.78	4.5076E00
837.96	4.6392E00
838.13	4.5510E00
838.30	4.7018E00
838.47	4.6279E00
838.64	4.5861E00
838.82	4.5484E00
838.99	4.7993E00
839.16	4.5294E00
839.33	4.5626E00
839.50	4.7665E00
839.67	4.6312E00
839.85	4.3849E00
840.02	4.6052E00
840.19	4.4942E00
840.36	4.7246E00
840.53	4.4332E00
840.70	4.3956E00
840.88	4.6605E00
841.05	4.7330E00
841.22	4.5834E00
841.39	4.5765E00
841.56	4.6136E00
841.73	4.5618E00
841.91	4.6779E00
842.08	4.6632E00
842.25	4.6234E00
842.42	4.6756E00
842.59	4.5915E00
842.76	4.8463E00
842.93	4.6084E00
843.11	4.6615E00
843.28	4.5866E00
843.45	4.6045E00
843.62	4.4380E00
843.79	4.4866E00
843.96	4.7465E00
844.13	4.6017E00
844.30	4.5891E00
844.48	4.7208E00
844.65	4.4118E00
844.82	4.3040E00
844.99	4.4707E00
845.16	4.4449E00
845.33	4.4928E00
845.50	4.4875E00
845.67	4.3029E00
845.84	4.4598E00
846.02	4.3546E00
846.19	4.4685E00
846.36	4.4522E00
846.53	4.6774E00
846.70	4.5092E00
846.87	4.2545E00
847.04	4.5348E00
847.21	4.5171E00
847.38	4.5157E00
847.55	4.5006E00
847.73	4.3434E00
847.90	4.4186E00
848.07	4.2578E00
848.24	4.3126E00
848.41	4.2364E00
848.58	4.7173E00
848.75	4.3299E00
848.92	4.5715E00
849.09	4.3242E00
849.26	4.2348E00
849.43	4.1445E00
849.60	4.2591E00
849.77	4.3867E00
849.94	3.7920E00
850.12	4.3839E00
850.29	4.2543E00
850.46	4.1582E00
850.63	4.0720E00
850.80	4.1881E00
850.97	4.1619E00
851.14	3.9604E00
851.31	3.7865E00
851.48	3.9976E00
851.65	4.0668E00
851.82	4.2216E00
851.99	4.1319E00
852.16	3.7533E00
852.33	4.0338E00
852.50	3.9205E00
852.67	3.9586E00
852.84	4.0198E00
853.01	3.8920E00
853.18	4.0132E00
853.35	3.7860E00
853.52	4.1729E00
853.69	3.8858E00
853.86	3.7075E00
854.03	3.6943E00
854.21	3.9737E00
854.38	3.8833E00
854.55	3.9982E00
854.72	4.0229E00
854.89	3.7264E00
855.06	3.5258E00
855.23	3.8214E00
855.40	4.0318E00
855.57	3.6841E00
855.74	3.7870E00
855.91	3.8727E00
856.08	3.7037E00
856.25	3.8914E00
856.42	3.8419E00
856.59	3.8344E00
856.76	3.9129E00
856.93	3.9032E00
857.10	3.8827E00
857.27	4.1612E00
857.44	3.9855E00
857.61	3.9774E00
857.77	3.7818E00
857.94	3.8050E00
858.11	3.7577E00
858.28	4.0915E00
858.45	3.7424E00
858.62	3.9340E00
858.79	3.8289E00
858.96	3.8523E00
859.13	3.8624E00
859.30	3.9950E00
859.47	3.7938E00
859.64	3.5705E00
859.81	3.9761E00
859.98	3.9764E00
860.15	3.8305E00
860.32	3.7000E00
860.49	4.1442E00
860.66	3.8353E00
860.83	3.8724E00
861.00	3.7989E00
861.17	3.8360E00
861.34	3.8648E00
861.51	3.4626E00
861.68	3.8887E00
861.84	3.7966E00
862.01	3.6155E00
862.18	3.6705E00
862.35	3.7951E00
862.52	3.7870E00
862.69	3.6653E00
862.86	3.7467E00
863.03	3.8104E00
863.20	3.7143E00
863.37	3.7556E00
863.54	3.5144E00
863.71	3.5102E00
863.88	3.6423E00
864.05	3.6235E00
864.21	3.7534E00
864.38	3.4821E00
864.55	3.4156E00
864.72	3.8243E00
864.89	3.5812E00
865.06	3.7473E00
865.23	3.5207E00
865.40	3.3720E00
865.57	3.7547E00
865.74	3.6048E00
865.90	3.6457E00
866.07	3.6104E00
866.24	3.3308E00
866.41	3.2814E00
866.58	3.3661E00
866.75	3.4023E00
866.92	3.4122E00
867.09	3.4225E00
867.26	3.4370E00
867.42	3.2496E00
867.59	3.1150E00
867.76	3.4858E00
867.93	3.3063E00
868.10	3.3796E00
868.27	3.0007E00
868.44	3.3666E00
868.60	3.4503E00
868.77	3.3896E00
868.94	3.2949E00
869.11	3.2499E00
869.28	3.4362E00
869.45	3.0159E00
869.62	3.3684E00
869.78	3.2634E00
869.95	3.0731E00
870.12	3.1903E00
870.29	3.3331E00
870.46	3.3805E00
870.63	3.1993E00
870.80	3.0223E00
870.96	3.1735E00
871.13	3.1178E00
871.30	3.3283E00
871.47	3.3560E00
871.64	3.3590E00
871.81	2.8722E00
871.97	3.4875E00
872.14	3.0349E00
872.31	2.9656E00
872.48	3.1408E00
872.65	3.3931E00
872.81	3.2055E00
872.98	3.4688E00
873.15	3.3510E00
873.32	3.3534E00
873.49	3.1743E00
873.66	3.3276E00
873.82	3.1966E00
873.99	3.0821E00
874.16	3.2599E00
874.33	3.1313E00
874.50	3.3207E00
874.66	3.1865E00
874.83	3.2353E00
875.00	3.1768E00
875.17	2.8352E00
875.34	3.3030E00
875.50	3.0839E00
875.67	3.0099E00
875.84	3.0785E00
876.01	2.9892E00
876.17	2.8760E00
876.34	2.8794E00
876.51	3.2893E00
876.68	3.1918E00
876.85	3.1017E00
877.01	3.2206E00
877.18	2.9786E00
877.35	3.0537E00
877.52	3.0235E00
877.68	3.1502E00
877.85	2.9756E00
878.02	3.0522E00
878.19	2.9639E00
878.35	3.0458E00
878.52	3.0163E00
878.69	3.0775E00
878.86	2.8311E00
879.02	2.9631E00
879.19	2.7738E00
879.36	2.8925E00
879.53	2.6202E00
879.69	2.8613E00
879.86	3.1062E00
880.03	3.0628E00
880.20	2.8226E00
880.36	3.0945E00
880.53	2.7583E00
880.70	3.1261E00
880.87	2.8868E00
881.03	2.9033E00
881.20	2.6143E00
881.37	2.8438E00
881.54	2.9289E00
881.70	3.0677E00
881.87	2.7663E00
882.04	2.7837E00
882.20	2.8016E00
882.37	2.5839E00
882.54	2.9006E00
882.71	2.8675E00
882.87	3.0479E00
883.04	2.7619E00
883.21	2.7640E00
883.37	2.6921E00
883.54	2.7783E00
883.71	2.6974E00
883.87	2.6010E00
884.04	2.9634E00
884.21	2.6907E00
884.38	2.5821E00
884.54	2.9859E00
884.71	2.9783E00
884.88	2.6861E00
885.04	2.7879E00
885.21	2.6335E00
885.38	2.6397E00
885.54	3.0671E00
885.71	2.6647E00
885.88	2.7901E00
886.04	2.7261E00
886.21	2.7555E00
886.38	2.6331E00
886.54	2.6821E00
886.71	2.5393E00
886.88	2.9146E00
887.04	2.4402E00
887.21	2.6179E00
887.38	2.8026E00
887.54	2.3700E00
887.71	2.7002E00
887.88	2.8210E00
888.04	2.7519E00
888.21	2.6702E00
888.38	2.8915E00
888.54	2.8210E00
888.71	2.4643E00
888.87	2.4364E00
889.04	2.4364E00
>>>>>End Processed Spectral Data<<<<<
