SpectraSuite Data File
++++++++++++++++++++++++++++++++++++
Date: Wed Jul 25 11:08:31 HST 2007
User: guest
Dark Spectrum Present: Yes
Reference Spectrum Present: No
Number of Sampled Component Spectra: 1
Spectrometers: USB4E01242
Integration Time (usec): 100000 (USB4E01242)
Spectra Averaged: 1 (USB4E01242)
Boxcar Smoothing: 10 (USB4E01242)
Correct for Electrical Dark: No (USB4E01242)
Strobe/Lamp Enabled: No (USB4E01242)
Correct for Detector Non-linearity: No (USB4E01242)
Correct for Stray Light: No (USB4E01242)
Number of Pixels in Processed Spectrum: 3648
>>>>>Begin Processed Spectral Data<<<<<
177.33	0.0000E00
177.55	0.0000E00
177.77	0.0000E00
177.99	0.0000E00
178.21	0.0000E00
178.43	0.0000E00
178.64	0.0000E00
178.86	0.0000E00
179.08	0.0000E00
179.30	0.0000E00
179.52	0.0000E00
179.74	0.0000E00
179.96	0.0000E00
180.18	0.0000E00
180.39	0.0000E00
180.61	0.0000E00
180.83	0.0000E00
181.05	0.0000E00
181.27	0.0000E00
181.49	0.0000E00
181.71	0.0000E00
181.92	0.0000E00
182.14	0.0000E00
182.36	0.0000E00
182.58	0.0000E00
182.80	0.0000E00
183.02	0.0000E00
183.23	0.0000E00
183.45	0.0000E00
183.67	0.0000E00
183.89	0.0000E00
184.11	0.0000E00
184.33	0.0000E00
184.55	0.0000E00
184.76	0.0000E00
184.98	0.0000E00
185.20	-0.0000E00
185.42	0.0000E00
185.64	0.0000E00
185.86	0.0000E00
186.07	0.0000E00
186.29	0.0000E00
186.51	0.0000E00
186.73	0.0000E00
186.95	0.0000E00
187.17	0.0000E00
187.38	0.0000E00
187.60	0.0000E00
187.82	0.0000E00
188.04	0.0000E00
188.26	0.0000E00
188.47	0.0000E00
188.69	0.0000E00
188.91	0.0000E00
189.13	0.0000E00
189.35	0.0000E00
189.57	0.0000E00
189.78	0.0000E00
190.00	0.0000E00
190.22	0.0000E00
190.44	0.0000E00
190.66	0.0000E00
190.87	0.0000E00
191.09	0.0000E00
191.31	0.0000E00
191.53	-0.0000E00
191.75	0.0000E00
191.97	0.0000E00
192.18	0.0000E00
192.40	0.0000E00
192.62	0.0000E00
192.84	0.0000E00
193.06	0.0000E00
193.27	0.0000E00
193.49	0.0000E00
193.71	0.0000E00
193.93	0.0000E00
194.15	0.0000E00
194.36	0.0000E00
194.58	0.0000E00
194.80	0.0000E00
195.02	0.0000E00
195.23	0.0000E00
195.45	0.0000E00
195.67	0.0000E00
195.89	0.0000E00
196.11	0.0000E00
196.32	0.0000E00
196.54	0.0000E00
196.76	0.0000E00
196.98	0.0000E00
197.20	0.0000E00
197.41	0.0000E00
197.63	0.0000E00
197.85	0.0000E00
198.07	0.0000E00
198.28	0.0000E00
198.50	0.0000E00
198.72	0.0000E00
198.94	0.0000E00
199.16	0.0000E00
199.37	0.0000E00
199.59	0.0000E00
199.81	0.0000E00
200.03	0.0000E00
200.24	0.0000E00
200.46	0.0000E00
200.68	0.0000E00
200.90	0.0000E00
201.11	0.0000E00
201.33	0.0000E00
201.55	0.0000E00
201.77	0.0000E00
201.98	0.0000E00
202.20	0.0000E00
202.42	0.0000E00
202.64	0.0000E00
202.86	0.0000E00
203.07	0.0000E00
203.29	0.0000E00
203.51	0.0000E00
203.73	0.0000E00
203.94	0.0000E00
204.16	0.0000E00
204.38	0.0000E00
204.60	0.0000E00
204.81	0.0000E00
205.03	0.0000E00
205.25	0.0000E00
205.46	0.0000E00
205.68	0.0000E00
205.90	0.0000E00
206.12	0.0000E00
206.33	0.0000E00
206.55	0.0000E00
206.77	0.0000E00
206.99	0.0000E00
207.20	0.0000E00
207.42	0.0000E00
207.64	0.0000E00
207.86	0.0000E00
208.07	0.0000E00
208.29	0.0000E00
208.51	0.0000E00
208.72	0.0000E00
208.94	0.0000E00
209.16	0.0000E00
209.38	0.0000E00
209.59	0.0000E00
209.81	0.0000E00
210.03	0.0000E00
210.25	0.0000E00
210.46	0.0000E00
210.68	0.0000E00
210.90	0.0000E00
211.11	0.0000E00
211.33	0.0000E00
211.55	0.0000E00
211.77	0.0000E00
211.98	0.0000E00
212.20	0.0000E00
212.42	0.0000E00
212.63	0.0000E00
212.85	0.0000E00
213.07	0.0000E00
213.29	0.0000E00
213.50	0.0000E00
213.72	0.0000E00
213.94	0.0000E00
214.15	0.0000E00
214.37	0.0000E00
214.59	0.0000E00
214.80	0.0000E00
215.02	0.0000E00
215.24	0.0000E00
215.45	0.0000E00
215.67	0.0000E00
215.89	0.0000E00
216.11	0.0000E00
216.32	0.0000E00
216.54	0.0000E00
216.76	0.0000E00
216.97	0.0000E00
217.19	0.0000E00
217.41	0.0000E00
217.62	0.0000E00
217.84	0.0000E00
218.06	0.0000E00
218.27	0.0000E00
218.49	0.0000E00
218.71	0.0000E00
218.92	0.0000E00
219.14	0.0000E00
219.36	0.0000E00
219.57	0.0000E00
219.79	0.0000E00
220.01	0.0000E00
220.22	0.0000E00
220.44	0.0000E00
220.66	0.0000E00
220.88	0.0000E00
221.09	0.0000E00
221.31	0.0000E00
221.53	0.0000E00
221.74	0.0000E00
221.96	0.0000E00
222.17	0.0000E00
222.39	0.0000E00
222.61	0.0000E00
222.82	0.0000E00
223.04	0.0000E00
223.26	0.0000E00
223.47	-0.0000E00
223.69	0.0000E00
223.91	0.0000E00
224.12	0.0000E00
224.34	0.0000E00
224.56	0.0000E00
224.77	0.0000E00
224.99	0.0000E00
225.21	0.0000E00
225.42	0.0000E00
225.64	0.0000E00
225.86	0.0000E00
226.07	0.0000E00
226.29	0.0000E00
226.50	0.0000E00
226.72	0.0000E00
226.94	0.0000E00
227.15	0.0000E00
227.37	0.0000E00
227.59	0.0000E00
227.80	0.0000E00
228.02	0.0000E00
228.24	0.0000E00
228.45	0.0000E00
228.67	-0.0000E00
228.88	0.0000E00
229.10	0.0000E00
229.32	0.0000E00
229.53	0.0000E00
229.75	0.0000E00
229.97	0.0000E00
230.18	0.0000E00
230.40	0.0000E00
230.61	0.0000E00
230.83	0.0000E00
231.05	0.0000E00
231.26	0.0000E00
231.48	0.0000E00
231.70	0.0000E00
231.91	0.0000E00
232.13	0.0000E00
232.34	0.0000E00
232.56	0.0000E00
232.78	0.0000E00
232.99	0.0000E00
233.21	0.0000E00
233.42	0.0000E00
233.64	0.0000E00
233.86	0.0000E00
234.07	0.0000E00
234.29	0.0000E00
234.50	0.0000E00
234.72	0.0000E00
234.94	0.0000E00
235.15	0.0000E00
235.37	0.0000E00
235.58	0.0000E00
235.80	0.0000E00
236.02	0.0000E00
236.23	0.0000E00
236.45	0.0000E00
236.66	0.0000E00
236.88	0.0000E00
237.10	0.0000E00
237.31	0.0000E00
237.53	0.0000E00
237.74	0.0000E00
237.96	0.0000E00
238.17	0.0000E00
238.39	0.0000E00
238.61	0.0000E00
238.82	0.0000E00
239.04	0.0000E00
239.25	0.0000E00
239.47	0.0000E00
239.69	0.0000E00
239.90	0.0000E00
240.12	0.0000E00
240.33	0.0000E00
240.55	0.0000E00
240.76	0.0000E00
240.98	0.0000E00
241.20	0.0000E00
241.41	0.0000E00
241.63	0.0000E00
241.84	0.0000E00
242.06	0.0000E00
242.27	0.0000E00
242.49	0.0000E00
242.70	0.0000E00
242.92	0.0000E00
243.14	0.0000E00
243.35	0.0000E00
243.57	0.0000E00
243.78	0.0000E00
244.00	0.0000E00
244.21	0.0000E00
244.43	0.0000E00
244.64	0.0000E00
244.86	0.0000E00
245.08	0.0000E00
245.29	0.0000E00
245.51	0.0000E00
245.72	0.0000E00
245.94	0.0000E00
246.15	0.0000E00
246.37	0.0000E00
246.58	0.0000E00
246.80	0.0000E00
247.01	0.0000E00
247.23	0.0000E00
247.45	0.0000E00
247.66	0.0000E00
247.88	0.0000E00
248.09	0.0000E00
248.31	0.0000E00
248.52	0.0000E00
248.74	0.0000E00
248.95	0.0000E00
249.17	0.0000E00
249.38	0.0000E00
249.60	0.0000E00
249.81	0.0000E00
250.03	0.0000E00
250.24	0.0000E00
250.46	0.0000E00
250.67	0.0000E00
250.89	0.0000E00
251.10	0.0000E00
251.32	0.0000E00
251.53	0.0000E00
251.75	0.0000E00
251.97	0.0000E00
252.18	0.0000E00
252.40	0.0000E00
252.61	0.0000E00
252.83	0.0000E00
253.04	0.0000E00
253.26	0.0000E00
253.47	0.0000E00
253.69	0.0000E00
253.90	0.0000E00
254.12	0.0000E00
254.33	0.0000E00
254.55	0.0000E00
254.76	0.0000E00
254.98	0.0000E00
255.19	0.0000E00
255.41	0.0000E00
255.62	0.0000E00
255.84	0.0000E00
256.05	0.0000E00
256.27	0.0000E00
256.48	0.0000E00
256.70	0.0000E00
256.91	0.0000E00
257.13	0.0000E00
257.34	0.0000E00
257.55	0.0000E00
257.77	0.0000E00
257.98	0.0000E00
258.20	0.0000E00
258.41	0.0000E00
258.63	0.0000E00
258.84	0.0000E00
259.06	0.0000E00
259.27	0.0000E00
259.49	0.0000E00
259.70	0.0000E00
259.92	0.0000E00
260.13	0.0000E00
260.35	0.0000E00
260.56	0.0000E00
260.78	0.0000E00
260.99	0.0000E00
261.21	0.0000E00
261.42	0.0000E00
261.63	0.0000E00
261.85	0.0000E00
262.06	0.0000E00
262.28	0.0000E00
262.49	0.0000E00
262.71	0.0000E00
262.92	0.0000E00
263.14	0.0000E00
263.35	0.0000E00
263.57	0.0000E00
263.78	0.0000E00
264.00	0.0000E00
264.21	0.0000E00
264.42	0.0000E00
264.64	0.0000E00
264.85	0.0000E00
265.07	0.0000E00
265.28	0.0000E00
265.50	0.0000E00
265.71	0.0000E00
265.93	0.0000E00
266.14	0.0000E00
266.35	0.0000E00
266.57	0.0000E00
266.78	0.0000E00
267.00	0.0000E00
267.21	0.0000E00
267.43	0.0000E00
267.64	0.0000E00
267.85	0.0000E00
268.07	0.0000E00
268.28	0.0000E00
268.50	0.0000E00
268.71	0.0000E00
268.93	0.0000E00
269.14	0.0000E00
269.35	0.0000E00
269.57	0.0000E00
269.78	0.0000E00
270.00	0.0000E00
270.21	0.0000E00
270.43	0.0000E00
270.64	0.0000E00
270.85	0.0000E00
271.07	0.0000E00
271.28	0.0000E00
271.50	0.0000E00
271.71	0.0000E00
271.92	0.0000E00
272.14	0.0000E00
272.35	0.0000E00
272.57	0.0000E00
272.78	0.0000E00
272.99	0.0000E00
273.21	0.0000E00
273.42	0.0000E00
273.64	0.0000E00
273.85	0.0000E00
274.07	0.0000E00
274.28	0.0000E00
274.49	0.0000E00
274.71	0.0000E00
274.92	0.0000E00
275.13	0.0000E00
275.35	0.0000E00
275.56	0.0000E00
275.78	0.0000E00
275.99	0.0000E00
276.20	0.0000E00
276.42	0.0000E00
276.63	0.0000E00
276.85	0.0000E00
277.06	0.0000E00
277.27	0.0000E00
277.49	0.0000E00
277.70	0.0000E00
277.92	0.0000E00
278.13	0.0000E00
278.34	0.0000E00
278.56	0.0000E00
278.77	0.0000E00
278.98	0.0000E00
279.20	0.0000E00
279.41	0.0000E00
279.63	0.0000E00
279.84	0.0000E00
280.05	0.0000E00
280.27	0.0000E00
280.48	0.0000E00
280.69	0.0000E00
280.91	0.0000E00
281.12	0.0000E00
281.33	0.0000E00
281.55	0.0000E00
281.76	0.0000E00
281.98	0.0000E00
282.19	0.0000E00
282.40	0.0000E00
282.62	0.0000E00
282.83	0.0000E00
283.04	0.0000E00
283.26	0.0000E00
283.47	0.0000E00
283.68	0.0000E00
283.90	0.0000E00
284.11	0.0000E00
284.32	0.0000E00
284.54	0.0000E00
284.75	0.0000E00
284.96	0.0000E00
285.18	0.0000E00
285.39	0.0000E00
285.60	0.0000E00
285.82	0.0000E00
286.03	0.0000E00
286.24	0.0000E00
286.46	0.0000E00
286.67	0.0000E00
286.88	0.0000E00
287.10	0.0000E00
287.31	0.0000E00
287.52	0.0000E00
287.74	0.0000E00
287.95	0.0000E00
288.16	0.0000E00
288.38	0.0000E00
288.59	-0.0000E00
288.80	0.0000E00
289.02	0.0000E00
289.23	0.0000E00
289.44	0.0000E00
289.66	0.0000E00
289.87	0.0000E00
290.08	0.0000E00
290.30	0.0000E00
290.51	0.0000E00
290.72	0.0000E00
290.94	0.0000E00
291.15	0.0000E00
291.36	0.0000E00
291.57	0.0000E00
291.79	0.0000E00
292.00	0.0000E00
292.21	0.0000E00
292.43	0.0000E00
292.64	0.0000E00
292.85	0.0000E00
293.07	0.0000E00
293.28	0.0000E00
293.49	0.0000E00
293.70	0.0000E00
293.92	0.0000E00
294.13	0.0000E00
294.34	0.0000E00
294.56	0.0000E00
294.77	0.0000E00
294.98	0.0000E00
295.20	0.0000E00
295.41	0.0000E00
295.62	0.0000E00
295.83	0.0000E00
296.05	0.0000E00
296.26	0.0000E00
296.47	0.0000E00
296.69	0.0000E00
296.90	0.0000E00
297.11	0.0000E00
297.32	0.0000E00
297.54	0.0000E00
297.75	0.0000E00
297.96	0.0000E00
298.17	0.0000E00
298.39	0.0000E00
298.60	0.0000E00
298.81	0.0000E00
299.03	0.0000E00
299.24	0.0000E00
299.45	0.0000E00
299.66	0.0000E00
299.88	0.0000E00
300.09	2.1121E-02
300.30	1.7496E-02
300.51	2.7372E-02
300.73	1.7730E-02
300.94	2.0624E-02
301.15	2.4738E-02
301.36	1.5616E-02
301.58	1.9590E-02
301.79	3.5194E-02
302.00	2.0927E-02
302.21	1.8284E-02
302.43	2.7587E-02
302.64	1.8529E-02
302.85	2.7620E-02
303.06	1.6237E-02
303.28	2.5251E-02
303.49	1.7998E-02
303.70	3.0882E-02
303.91	1.9870E-02
304.13	1.7803E-02
304.34	2.2717E-02
304.55	3.2365E-02
304.76	1.6276E-02
304.98	2.0159E-02
305.19	2.9652E-02
305.40	1.8384E-02
305.61	2.7501E-02
305.82	2.1255E-02
306.04	2.9301E-02
306.25	1.8001E-02
306.46	3.2813E-02
306.67	2.1809E-02
306.89	2.3816E-02
307.10	3.1265E-02
307.31	2.9531E-02
307.52	2.6489E-02
307.74	3.4911E-02
307.95	3.4915E-02
308.16	1.8692E-02
308.37	2.9653E-02
308.58	2.7485E-02
308.80	3.5137E-02
309.01	3.2215E-02
309.22	2.0768E-02
309.43	2.6215E-02
309.64	3.5213E-02
309.86	4.1933E-02
310.07	3.2749E-02
310.28	3.6590E-02
310.49	3.7796E-02
310.70	2.8959E-02
310.92	3.9150E-02
311.13	3.5060E-02
311.34	3.7322E-02
311.55	3.8514E-02
311.76	3.7969E-02
311.98	5.0930E-02
312.19	3.8825E-02
312.40	3.3815E-02
312.61	3.7078E-02
312.82	4.3342E-02
313.04	3.5469E-02
313.25	4.3989E-02
313.46	3.6732E-02
313.67	3.6956E-02
313.88	3.9527E-02
314.10	3.6529E-02
314.31	3.6638E-02
314.52	3.7873E-02
314.73	4.0531E-02
314.94	4.8139E-02
315.16	4.9378E-02
315.37	5.6148E-02
315.58	3.9727E-02
315.79	4.7159E-02
316.00	4.9828E-02
316.21	5.4333E-02
316.43	3.6816E-02
316.64	4.1994E-02
316.85	4.0111E-02
317.06	4.8808E-02
317.27	5.4101E-02
317.48	4.5464E-02
317.70	4.8569E-02
317.91	4.7810E-02
318.12	5.7092E-02
318.33	4.4935E-02
318.54	4.8547E-02
318.75	5.0725E-02
318.97	5.8656E-02
319.18	5.0457E-02
319.39	4.7773E-02
319.60	4.9778E-02
319.81	5.6319E-02
320.02	4.8540E-02
320.24	4.9527E-02
320.45	5.3985E-02
320.66	4.3102E-02
320.87	5.1189E-02
321.08	5.8699E-02
321.29	5.7658E-02
321.50	4.9807E-02
321.72	4.6330E-02
321.93	5.9321E-02
322.14	4.9824E-02
322.35	5.9573E-02
322.56	6.0424E-02
322.77	6.5029E-02
322.98	5.3079E-02
323.20	6.4540E-02
323.41	4.9978E-02
323.62	4.9760E-02
323.83	5.9217E-02
324.04	5.1462E-02
324.25	5.1362E-02
324.46	5.7063E-02
324.67	5.9290E-02
324.89	5.6313E-02
325.10	5.4848E-02
325.31	6.7776E-02
325.52	6.2114E-02
325.73	5.4726E-02
325.94	5.8122E-02
326.15	5.1224E-02
326.36	6.9249E-02
326.58	7.2987E-02
326.79	7.0523E-02
327.00	5.0192E-02
327.21	6.9728E-02
327.42	7.0171E-02
327.63	7.0466E-02
327.84	6.7037E-02
328.05	7.4397E-02
328.26	5.5209E-02
328.48	6.8227E-02
328.69	7.3085E-02
328.90	6.7158E-02
329.11	6.7645E-02
329.32	6.8329E-02
329.53	6.2479E-02
329.74	6.8322E-02
329.95	7.6065E-02
330.16	7.3153E-02
330.37	6.8004E-02
330.59	8.6628E-02
330.80	7.5662E-02
331.01	7.6960E-02
331.22	7.5447E-02
331.43	6.6432E-02
331.64	6.5504E-02
331.85	8.1111E-02
332.06	7.7493E-02
332.27	6.4909E-02
332.48	7.7710E-02
332.69	8.2766E-02
332.91	7.6250E-02
333.12	7.5092E-02
333.33	8.8649E-02
333.54	6.7741E-02
333.75	6.3474E-02
333.96	6.9235E-02
334.17	6.6241E-02
334.38	6.8120E-02
334.59	7.5303E-02
334.80	7.7388E-02
335.01	7.4704E-02
335.22	6.8858E-02
335.43	6.7172E-02
335.64	7.0568E-02
335.86	7.4205E-02
336.07	7.3521E-02
336.28	6.1007E-02
336.49	7.5179E-02
336.70	6.4947E-02
336.91	6.4898E-02
337.12	6.1972E-02
337.33	7.7007E-02
337.54	6.6465E-02
337.75	6.4765E-02
337.96	7.5621E-02
338.17	7.5248E-02
338.38	6.3336E-02
338.59	7.7782E-02
338.80	6.1010E-02
339.01	7.8427E-02
339.22	7.6086E-02
339.43	7.6516E-02
339.65	6.9636E-02
339.86	6.4372E-02
340.07	6.3053E-02
340.28	7.1325E-02
340.49	7.1006E-02
340.70	7.2734E-02
340.91	6.2622E-02
341.12	5.9344E-02
341.33	7.0308E-02
341.54	7.5548E-02
341.75	6.6434E-02
341.96	7.0281E-02
342.17	7.3216E-02
342.38	6.6460E-02
342.59	6.9133E-02
342.80	6.0336E-02
343.01	6.6283E-02
343.22	6.5248E-02
343.43	6.2650E-02
343.64	5.8494E-02
343.85	6.7304E-02
344.06	5.4300E-02
344.27	6.5073E-02
344.48	7.3467E-02
344.69	6.5432E-02
344.90	6.7131E-02
345.11	6.2379E-02
345.32	6.0990E-02
345.53	5.1747E-02
345.74	6.7722E-02
345.95	5.4319E-02
346.16	6.3097E-02
346.37	6.2078E-02
346.58	6.1712E-02
346.79	5.5373E-02
347.00	6.6521E-02
347.21	6.8121E-02
347.42	5.9665E-02
347.63	5.3835E-02
347.84	6.2780E-02
348.05	6.8335E-02
348.26	6.2161E-02
348.47	6.5382E-02
348.68	6.4641E-02
348.89	5.3873E-02
349.10	6.2500E-02
349.31	6.5662E-02
349.52	6.0854E-02
349.73	6.3781E-02
349.94	6.4848E-02
350.15	5.8881E-02
350.36	7.3437E-02
350.57	7.0311E-02
350.78	7.2174E-02
350.99	7.2119E-02
351.20	6.5789E-02
351.41	7.1536E-02
351.62	6.6844E-02
351.83	6.7811E-02
352.04	6.7216E-02
352.25	7.3522E-02
352.46	6.9032E-02
352.67	6.4998E-02
352.88	7.9020E-02
353.09	5.6863E-02
353.30	6.7888E-02
353.51	7.0051E-02
353.72	7.8842E-02
353.93	6.8791E-02
354.14	6.4195E-02
354.35	7.8001E-02
354.56	6.8450E-02
354.77	8.2301E-02
354.98	6.1462E-02
355.19	6.7738E-02
355.39	6.9762E-02
355.60	6.6682E-02
355.81	7.0902E-02
356.02	7.3500E-02
356.23	6.1858E-02
356.44	5.9053E-02
356.65	7.2357E-02
356.86	6.5078E-02
357.07	6.4068E-02
357.28	7.2248E-02
357.49	6.7848E-02
357.70	7.1866E-02
357.91	6.0478E-02
358.12	6.0398E-02
358.33	6.9492E-02
358.54	7.2387E-02
358.75	6.6630E-02
358.96	7.3238E-02
359.16	5.9561E-02
359.37	7.6440E-02
359.58	7.1434E-02
359.79	6.8091E-02
360.00	6.8737E-02
360.21	7.1363E-02
360.42	6.9328E-02
360.63	8.8846E-02
360.84	7.9255E-02
361.05	6.3850E-02
361.26	7.4354E-02
361.47	8.2807E-02
361.68	7.3910E-02
361.88	7.9287E-02
362.09	7.2306E-02
362.30	7.9590E-02
362.51	7.6166E-02
362.72	8.7912E-02
362.93	7.7998E-02
363.14	8.0640E-02
363.35	7.7761E-02
363.56	7.6518E-02
363.77	8.8416E-02
363.98	8.5067E-02
364.18	9.2011E-02
364.39	9.0445E-02
364.60	8.4850E-02
364.81	8.7393E-02
365.02	8.9434E-02
365.23	9.1859E-02
365.44	9.2080E-02
365.65	9.0491E-02
365.86	8.0594E-02
366.07	9.8555E-02
366.27	9.2060E-02
366.48	9.6503E-02
366.69	9.2818E-02
366.90	1.0008E-01
367.11	9.6826E-02
367.32	9.8881E-02
367.53	9.2741E-02
367.74	8.8807E-02
367.95	8.9402E-02
368.15	9.3634E-02
368.36	9.8502E-02
368.57	8.5409E-02
368.78	1.0431E-01
368.99	9.2656E-02
369.20	9.1583E-02
369.41	9.8201E-02
369.62	9.3956E-02
369.82	1.0294E-01
370.03	9.4098E-02
370.24	9.6907E-02
370.45	9.2021E-02
370.66	8.6369E-02
370.87	8.6461E-02
371.08	8.8396E-02
371.28	8.7906E-02
371.49	8.8539E-02
371.70	8.7598E-02
371.91	8.8142E-02
372.12	8.2104E-02
372.33	8.1826E-02
372.54	8.6877E-02
372.74	8.5606E-02
372.95	7.4129E-02
373.16	8.7784E-02
373.37	8.9941E-02
373.58	7.4899E-02
373.79	8.6994E-02
374.00	8.2587E-02
374.20	9.2992E-02
374.41	9.0827E-02
374.62	8.5011E-02
374.83	8.4508E-02
375.04	8.7233E-02
375.25	8.8546E-02
375.45	7.4001E-02
375.66	9.1081E-02
375.87	8.9705E-02
376.08	9.3596E-02
376.29	9.2554E-02
376.50	9.0926E-02
376.70	8.8863E-02
376.91	9.4688E-02
377.12	9.5806E-02
377.33	8.4586E-02
377.54	8.7705E-02
377.75	9.6489E-02
377.95	8.9842E-02
378.16	9.3140E-02
378.37	8.6598E-02
378.58	9.6077E-02
378.79	8.1629E-02
379.00	9.6336E-02
379.20	8.6836E-02
379.41	9.0453E-02
379.62	9.2944E-02
379.83	8.6950E-02
380.04	8.8799E-02
380.24	8.4072E-02
380.45	7.7356E-02
380.66	7.9878E-02
380.87	8.4385E-02
381.08	8.5744E-02
381.28	7.7394E-02
381.49	8.3383E-02
381.70	7.5224E-02
381.91	7.7325E-02
382.12	8.1846E-02
382.32	7.5454E-02
382.53	8.0791E-02
382.74	7.2394E-02
382.95	7.6180E-02
383.16	7.9393E-02
383.36	6.7109E-02
383.57	7.8399E-02
383.78	8.2641E-02
383.99	7.4302E-02
384.20	7.7393E-02
384.40	7.8782E-02
384.61	8.5663E-02
384.82	8.8753E-02
385.03	8.2361E-02
385.23	8.5730E-02
385.44	8.6272E-02
385.65	9.0237E-02
385.86	8.1425E-02
386.07	9.9225E-02
386.27	7.9105E-02
386.48	8.7167E-02
386.69	9.3134E-02
386.90	7.5811E-02
387.10	8.6734E-02
387.31	9.4579E-02
387.52	8.8188E-02
387.73	9.3076E-02
387.94	9.8700E-02
388.14	8.5906E-02
388.35	9.1824E-02
388.56	1.0817E-01
388.77	1.0095E-01
388.97	1.0119E-01
389.18	1.0641E-01
389.39	9.6651E-02
389.60	9.8344E-02
389.80	1.0591E-01
390.01	1.0263E-01
390.22	1.0212E-01
390.43	9.1038E-02
390.63	9.4418E-02
390.84	9.4076E-02
391.05	1.0566E-01
391.26	9.5132E-02
391.46	9.3687E-02
391.67	9.3592E-02
391.88	8.4396E-02
392.09	8.4593E-02
392.29	9.5509E-02
392.50	8.7283E-02
392.71	9.0710E-02
392.92	9.2006E-02
393.12	9.0095E-02
393.33	9.4853E-02
393.54	8.7466E-02
393.74	8.2555E-02
393.95	8.6725E-02
394.16	9.5122E-02
394.37	8.8105E-02
394.57	8.9176E-02
394.78	9.5649E-02
394.99	9.2014E-02
395.19	9.1293E-02
395.40	9.1500E-02
395.61	9.1644E-02
395.82	1.0053E-01
396.02	9.4882E-02
396.23	1.0242E-01
396.44	1.0438E-01
396.65	1.0074E-01
396.85	1.1008E-01
397.06	1.0703E-01
397.27	1.1160E-01
397.47	1.1759E-01
397.68	1.1415E-01
397.89	1.1239E-01
398.09	1.1185E-01
398.30	1.1990E-01
398.51	1.1441E-01
398.72	1.2334E-01
398.92	1.3163E-01
399.13	1.3323E-01
399.34	1.3934E-01
399.54	1.4166E-01
399.75	1.3870E-01
399.96	1.3306E-01
400.16	1.3335E-01
400.37	1.4200E-01
400.58	1.4055E-01
400.78	1.4330E-01
400.99	1.4023E-01
401.20	1.4775E-01
401.41	1.4559E-01
401.61	1.3875E-01
401.82	1.4452E-01
402.03	1.3810E-01
402.23	1.3740E-01
402.44	1.4585E-01
402.65	1.4081E-01
402.85	1.4186E-01
403.06	1.4189E-01
403.27	1.4380E-01
403.47	1.4185E-01
403.68	1.3674E-01
403.89	1.4283E-01
404.09	1.3742E-01
404.30	1.3186E-01
404.51	1.4220E-01
404.71	1.4035E-01
404.92	1.4564E-01
405.13	1.2878E-01
405.33	1.3432E-01
405.54	1.3592E-01
405.75	1.3864E-01
405.95	1.3755E-01
406.16	1.2796E-01
406.37	1.3836E-01
406.57	1.3904E-01
406.78	1.4203E-01
406.99	1.4047E-01
407.19	1.4448E-01
407.40	1.4865E-01
407.60	1.4593E-01
407.81	1.4432E-01
408.02	1.3735E-01
408.22	1.3938E-01
408.43	1.4750E-01
408.64	1.4434E-01
408.84	1.4309E-01
409.05	1.3587E-01
409.26	1.4778E-01
409.46	1.5039E-01
409.67	1.4290E-01
409.87	1.4706E-01
410.08	1.4488E-01
410.29	1.5292E-01
410.49	1.3821E-01
410.70	1.4956E-01
410.91	1.4706E-01
411.11	1.5326E-01
411.32	1.4982E-01
411.52	1.4214E-01
411.73	1.5413E-01
411.94	1.5291E-01
412.14	1.5556E-01
412.35	1.5008E-01
412.56	1.5683E-01
412.76	1.5602E-01
412.97	1.5071E-01
413.17	1.5500E-01
413.38	1.6013E-01
413.59	1.5063E-01
413.79	1.5363E-01
414.00	1.5632E-01
414.20	1.5897E-01
414.41	1.4896E-01
414.62	1.5695E-01
414.82	1.5208E-01
415.03	1.4603E-01
415.23	1.5628E-01
415.44	1.4787E-01
415.65	1.5455E-01
415.85	1.4715E-01
416.06	1.5556E-01
416.26	1.5258E-01
416.47	1.5433E-01
416.68	1.5772E-01
416.88	1.6008E-01
417.09	1.4143E-01
417.29	1.5210E-01
417.50	1.5587E-01
417.71	1.5333E-01
417.91	1.5193E-01
418.12	1.5078E-01
418.32	1.5854E-01
418.53	1.5794E-01
418.73	1.5187E-01
418.94	1.5263E-01
419.15	1.5165E-01
419.35	1.6283E-01
419.56	1.5705E-01
419.76	1.4867E-01
419.97	1.6270E-01
420.17	1.5819E-01
420.38	1.4580E-01
420.59	1.6057E-01
420.79	1.6192E-01
421.00	1.5612E-01
421.20	1.4699E-01
421.41	1.5476E-01
421.61	1.5178E-01
421.82	1.5616E-01
422.02	1.5436E-01
422.23	1.4224E-01
422.44	1.6134E-01
422.64	1.5166E-01
422.85	1.5345E-01
423.05	1.5419E-01
423.26	1.5535E-01
423.46	1.5355E-01
423.67	1.5032E-01
423.87	1.5137E-01
424.08	1.4882E-01
424.29	1.4887E-01
424.49	1.5567E-01
424.70	1.4471E-01
424.90	1.5367E-01
425.11	1.5398E-01
425.31	1.5169E-01
425.52	1.5478E-01
425.72	1.4812E-01
425.93	1.5099E-01
426.13	1.4638E-01
426.34	1.4748E-01
426.54	1.4706E-01
426.75	1.4746E-01
426.95	1.4642E-01
427.16	1.4703E-01
427.36	1.4541E-01
427.57	1.4032E-01
427.78	1.3848E-01
427.98	1.3881E-01
428.19	1.4016E-01
428.39	1.3490E-01
428.60	1.3545E-01
428.80	1.3635E-01
429.01	1.4075E-01
429.21	1.2999E-01
429.42	1.4536E-01
429.62	1.4270E-01
429.83	1.3782E-01
430.03	1.3145E-01
430.24	1.4104E-01
430.44	1.3360E-01
430.65	1.3990E-01
430.85	1.4166E-01
431.06	1.3623E-01
431.26	1.4598E-01
431.47	1.3555E-01
431.67	1.5253E-01
431.88	1.4797E-01
432.08	1.5108E-01
432.29	1.5169E-01
432.49	1.4660E-01
432.70	1.4759E-01
432.90	1.5860E-01
433.11	1.5784E-01
433.31	1.4554E-01
433.52	1.5512E-01
433.72	1.5209E-01
433.93	1.5606E-01
434.13	1.5556E-01
434.34	1.6577E-01
434.54	1.5468E-01
434.74	1.5797E-01
434.95	1.6045E-01
435.15	1.5803E-01
435.36	1.6141E-01
435.56	1.5613E-01
435.77	1.6329E-01
435.97	1.5623E-01
436.18	1.7447E-01
436.38	1.6573E-01
436.59	1.6117E-01
436.79	1.6838E-01
437.00	1.6639E-01
437.20	1.6295E-01
437.41	1.6153E-01
437.61	1.6510E-01
437.81	1.6465E-01
438.02	1.6452E-01
438.22	1.6831E-01
438.43	1.6094E-01
438.63	1.7426E-01
438.84	1.6548E-01
439.04	1.6639E-01
439.25	1.6831E-01
439.45	1.6297E-01
439.66	1.6429E-01
439.86	1.6680E-01
440.06	1.7763E-01
440.27	1.6814E-01
440.47	1.6389E-01
440.68	1.7615E-01
440.88	1.7258E-01
441.09	1.7871E-01
441.29	1.7807E-01
441.49	1.7759E-01
441.70	1.8365E-01
441.90	1.7988E-01
442.11	1.8253E-01
442.31	1.8645E-01
442.52	1.7958E-01
442.72	1.7896E-01
442.92	1.7327E-01
443.13	1.8226E-01
443.33	1.7152E-01
443.54	1.7997E-01
443.74	1.7971E-01
443.95	1.8563E-01
444.15	1.8191E-01
444.35	1.8625E-01
444.56	1.8061E-01
444.76	1.7664E-01
444.97	1.9109E-01
445.17	1.8619E-01
445.37	1.9395E-01
445.58	1.8201E-01
445.78	1.8502E-01
445.99	1.7849E-01
446.19	1.7897E-01
446.39	1.8143E-01
446.60	1.7771E-01
446.80	1.7877E-01
447.01	1.8807E-01
447.21	1.9410E-01
447.41	1.8405E-01
447.62	1.9281E-01
447.82	1.8924E-01
448.03	1.9264E-01
448.23	1.9241E-01
448.43	1.9421E-01
448.64	1.9701E-01
448.84	1.9670E-01
449.05	1.9325E-01
449.25	1.9728E-01
449.45	1.9132E-01
449.66	1.9354E-01
449.86	1.9490E-01
450.07	1.8964E-01
450.27	1.9504E-01
450.47	1.9189E-01
450.68	1.9515E-01
450.88	1.9151E-01
451.08	1.9420E-01
451.29	1.9615E-01
451.49	1.9624E-01
451.70	1.9532E-01
451.90	1.9765E-01
452.10	1.9651E-01
452.31	1.8854E-01
452.51	1.9670E-01
452.71	1.9451E-01
452.92	1.9263E-01
453.12	1.9811E-01
453.32	1.9368E-01
453.53	1.8503E-01
453.73	1.8718E-01
453.93	1.8862E-01
454.14	1.9953E-01
454.34	1.9708E-01
454.55	1.9974E-01
454.75	1.9826E-01
454.95	1.9374E-01
455.16	2.0447E-01
455.36	1.9603E-01
455.56	2.0622E-01
455.77	2.0362E-01
455.97	2.0064E-01
456.17	1.9735E-01
456.38	2.0163E-01
456.58	2.0739E-01
456.78	2.0000E-01
456.99	1.9380E-01
457.19	1.9936E-01
457.39	1.9884E-01
457.60	2.0158E-01
457.80	1.9987E-01
458.00	1.9811E-01
458.21	2.0455E-01
458.41	2.0359E-01
458.61	1.9915E-01
458.82	1.9862E-01
459.02	1.9484E-01
459.22	2.0702E-01
459.43	2.0479E-01
459.63	2.0239E-01
459.83	1.9894E-01
460.03	2.0200E-01
460.24	2.0557E-01
460.44	1.9922E-01
460.64	1.9581E-01
460.85	2.0330E-01
461.05	2.0213E-01
461.25	2.0277E-01
461.46	2.0011E-01
461.66	1.9654E-01
461.86	2.0194E-01
462.07	2.0470E-01
462.27	2.0227E-01
462.47	2.0710E-01
462.67	2.0097E-01
462.88	2.0445E-01
463.08	1.9566E-01
463.28	2.0189E-01
463.49	2.0614E-01
463.69	2.0163E-01
463.89	2.0243E-01
464.09	2.0354E-01
464.30	1.9868E-01
464.50	2.0420E-01
464.70	2.0571E-01
464.91	1.9408E-01
465.11	1.9518E-01
465.31	1.9570E-01
465.51	2.0124E-01
465.72	1.9852E-01
465.92	1.9856E-01
466.12	1.9452E-01
466.33	2.0083E-01
466.53	1.9771E-01
466.73	1.9469E-01
466.93	2.0019E-01
467.14	1.9383E-01
467.34	2.0573E-01
467.54	1.9941E-01
467.74	2.0049E-01
467.95	1.9924E-01
468.15	1.9660E-01
468.35	2.0044E-01
468.55	2.0322E-01
468.76	2.0296E-01
468.96	1.9167E-01
469.16	1.9948E-01
469.37	1.9845E-01
469.57	1.9956E-01
469.77	1.9581E-01
469.97	1.9960E-01
470.18	2.0234E-01
470.38	2.0360E-01
470.58	1.9993E-01
470.78	2.0276E-01
470.99	2.0162E-01
471.19	1.9787E-01
471.39	2.0164E-01
471.59	1.9609E-01
471.79	1.9930E-01
472.00	2.0057E-01
472.20	2.0283E-01
472.40	1.9758E-01
472.60	1.9778E-01
472.81	2.0566E-01
473.01	2.0348E-01
473.21	1.9889E-01
473.41	1.9259E-01
473.62	2.0463E-01
473.82	2.0720E-01
474.02	2.0023E-01
474.22	2.0153E-01
474.42	2.1046E-01
474.63	2.0447E-01
474.83	2.0173E-01
475.03	2.0291E-01
475.23	2.0470E-01
475.44	2.0173E-01
475.64	2.0318E-01
475.84	2.0511E-01
476.04	2.0339E-01
476.24	2.0432E-01
476.45	2.0560E-01
476.65	2.0269E-01
476.85	2.0242E-01
477.05	2.0740E-01
477.25	2.0941E-01
477.46	2.0615E-01
477.66	2.0456E-01
477.86	2.0862E-01
478.06	2.0906E-01
478.26	2.0936E-01
478.47	2.0732E-01
478.67	2.1350E-01
478.87	2.0728E-01
479.07	2.0368E-01
479.27	2.0796E-01
479.47	2.0982E-01
479.68	2.0926E-01
479.88	2.1016E-01
480.08	2.0907E-01
480.28	2.0993E-01
480.48	2.0946E-01
480.69	2.1066E-01
480.89	2.0810E-01
481.09	2.0871E-01
481.29	2.1339E-01
481.49	1.9978E-01
481.69	2.0889E-01
481.90	2.0597E-01
482.10	2.0709E-01
482.30	2.1010E-01
482.50	2.0651E-01
482.70	2.0234E-01
482.90	2.0244E-01
483.11	2.0155E-01
483.31	2.0129E-01
483.51	1.9410E-01
483.71	1.9521E-01
483.91	1.9564E-01
484.11	1.9494E-01
484.32	1.9459E-01
484.52	1.9634E-01
484.72	1.9552E-01
484.92	1.9414E-01
485.12	1.9328E-01
485.32	1.9206E-01
485.52	1.9123E-01
485.73	1.8736E-01
485.93	1.8671E-01
486.13	1.8781E-01
486.33	1.8922E-01
486.53	1.9179E-01
486.73	1.9339E-01
486.93	1.9273E-01
487.14	1.9827E-01
487.34	1.9777E-01
487.54	1.9781E-01
487.74	2.0057E-01
487.94	1.9314E-01
488.14	1.9979E-01
488.34	2.0037E-01
488.54	1.9955E-01
488.75	1.9927E-01
488.95	2.0046E-01
489.15	1.9991E-01
489.35	1.9892E-01
489.55	1.9955E-01
489.75	2.0238E-01
489.95	2.0112E-01
490.15	2.0118E-01
490.36	2.0338E-01
490.56	2.0197E-01
490.76	2.0522E-01
490.96	2.0374E-01
491.16	2.0419E-01
491.36	2.0279E-01
491.56	2.0239E-01
491.76	1.9745E-01
491.96	2.0304E-01
492.17	2.0250E-01
492.37	2.0461E-01
492.57	2.0660E-01
492.77	2.0708E-01
492.97	2.1041E-01
493.17	2.0859E-01
493.37	2.0793E-01
493.57	2.0763E-01
493.77	2.0769E-01
493.97	2.1192E-01
494.17	2.0848E-01
494.38	2.1000E-01
494.58	2.0818E-01
494.78	2.0844E-01
494.98	2.0842E-01
495.18	2.1096E-01
495.38	2.1086E-01
495.58	2.1252E-01
495.78	2.1268E-01
495.98	2.1448E-01
496.18	2.1385E-01
496.38	2.1136E-01
496.58	2.0745E-01
496.78	2.1366E-01
496.99	2.0914E-01
497.19	2.1273E-01
497.39	2.1380E-01
497.59	2.1121E-01
497.79	2.0725E-01
497.99	2.1039E-01
498.19	2.1150E-01
498.39	2.1214E-01
498.59	2.0853E-01
498.79	2.0772E-01
498.99	2.0772E-01
499.19	2.0990E-01
499.39	2.1022E-01
499.59	2.0777E-01
499.79	2.0771E-01
499.99	2.0756E-01
500.19	2.1084E-01
500.40	2.0795E-01
500.60	2.1044E-01
500.80	2.0973E-01
501.00	2.0873E-01
501.20	2.0753E-01
501.40	2.1233E-01
501.60	2.0939E-01
501.80	2.0973E-01
502.00	2.1254E-01
502.20	2.1140E-01
502.40	2.1204E-01
502.60	2.0879E-01
502.80	2.1669E-01
503.00	2.1492E-01
503.20	2.1290E-01
503.40	2.1176E-01
503.60	2.1405E-01
503.80	2.1757E-01
504.00	2.1589E-01
504.20	2.1903E-01
504.40	2.1846E-01
504.60	2.2096E-01
504.80	2.2096E-01
505.00	2.2073E-01
505.20	2.2389E-01
505.40	2.2199E-01
505.60	2.2084E-01
505.80	2.2293E-01
506.00	2.2334E-01
506.20	2.2261E-01
506.40	2.2278E-01
506.60	2.2293E-01
506.80	2.2130E-01
507.00	2.2377E-01
507.20	2.2533E-01
507.40	2.2781E-01
507.60	2.2500E-01
507.80	2.2658E-01
508.00	2.2753E-01
508.20	2.3105E-01
508.40	2.2904E-01
508.60	2.2687E-01
508.80	2.2515E-01
509.00	2.3313E-01
509.20	2.3043E-01
509.40	2.2877E-01
509.60	2.3109E-01
509.80	2.2981E-01
510.00	2.3466E-01
510.20	2.3375E-01
510.40	2.3486E-01
510.60	2.3221E-01
510.80	2.3120E-01
511.00	2.3085E-01
511.20	2.3727E-01
511.40	2.3345E-01
511.60	2.3439E-01
511.80	2.3561E-01
512.00	2.3619E-01
512.20	2.3821E-01
512.40	2.3605E-01
512.60	2.3766E-01
512.80	2.3785E-01
513.00	2.4083E-01
513.20	2.3960E-01
513.40	2.3775E-01
513.59	2.3679E-01
513.79	2.4027E-01
513.99	2.3915E-01
514.19	2.4037E-01
514.39	2.3865E-01
514.59	2.4189E-01
514.79	2.3932E-01
514.99	2.3934E-01
515.19	2.4152E-01
515.39	2.4257E-01
515.59	2.4385E-01
515.79	2.3928E-01
515.99	2.4588E-01
516.19	2.4556E-01
516.39	2.4504E-01
516.59	2.4700E-01
516.79	2.5091E-01
516.98	2.4705E-01
517.18	2.5308E-01
517.38	2.5416E-01
517.58	2.5588E-01
517.78	2.5736E-01
517.98	2.5956E-01
518.18	2.6255E-01
518.38	2.6962E-01
518.58	2.6749E-01
518.78	2.6851E-01
518.98	2.7081E-01
519.18	2.7482E-01
519.38	2.7930E-01
519.57	2.8012E-01
519.77	2.7954E-01
519.97	2.8502E-01
520.17	2.8606E-01
520.37	2.8786E-01
520.57	2.9184E-01
520.77	2.9436E-01
520.97	2.9515E-01
521.17	2.9587E-01
521.37	3.0021E-01
521.57	3.0358E-01
521.76	3.0174E-01
521.96	3.0617E-01
522.16	3.0592E-01
522.36	3.1130E-01
522.56	3.0616E-01
522.76	3.0976E-01
522.96	3.1467E-01
523.16	3.1317E-01
523.36	3.1646E-01
523.55	3.1384E-01
523.75	3.1564E-01
523.95	3.1647E-01
524.15	3.1494E-01
524.35	3.1751E-01
524.55	3.1869E-01
524.75	3.2165E-01
524.95	3.2343E-01
525.14	3.2283E-01
525.34	3.2234E-01
525.54	3.2062E-01
525.74	3.2445E-01
525.94	3.2625E-01
526.14	3.3025E-01
526.34	3.3067E-01
526.54	3.3512E-01
526.73	3.3172E-01
526.93	3.3817E-01
527.13	3.4038E-01
527.33	3.4295E-01
527.53	3.4729E-01
527.73	3.4620E-01
527.93	3.5092E-01
528.12	3.4830E-01
528.32	3.5214E-01
528.52	3.5867E-01
528.72	3.6213E-01
528.92	3.6089E-01
529.12	3.6251E-01
529.32	3.6465E-01
529.51	3.6742E-01
529.71	3.6890E-01
529.91	3.6945E-01
530.11	3.7260E-01
530.31	3.7681E-01
530.51	3.7342E-01
530.70	3.7347E-01
530.90	3.7760E-01
531.10	3.7660E-01
531.30	3.7955E-01
531.50	3.7985E-01
531.70	3.8158E-01
531.89	3.7895E-01
532.09	3.8032E-01
532.29	3.8083E-01
532.49	3.8612E-01
532.69	3.8534E-01
532.88	3.8513E-01
533.08	3.8367E-01
533.28	3.8768E-01
533.48	3.9308E-01
533.68	3.9193E-01
533.88	3.9749E-01
534.07	3.9800E-01
534.27	3.9865E-01
534.47	4.0224E-01
534.67	3.9714E-01
534.87	4.0377E-01
535.06	4.0410E-01
535.26	4.0286E-01
535.46	4.0208E-01
535.66	4.1062E-01
535.86	4.0540E-01
536.05	4.0586E-01
536.25	4.0848E-01
536.45	4.0931E-01
536.65	4.0951E-01
536.85	4.0761E-01
537.04	4.1056E-01
537.24	4.1473E-01
537.44	4.0622E-01
537.64	4.0417E-01
537.83	4.1089E-01
538.03	4.1224E-01
538.23	4.1459E-01
538.43	4.1430E-01
538.63	4.0972E-01
538.82	4.1218E-01
539.02	4.1228E-01
539.22	4.1531E-01
539.42	4.1151E-01
539.61	4.1531E-01
539.81	4.1618E-01
540.01	4.1226E-01
540.21	4.1533E-01
540.41	4.1487E-01
540.60	4.1764E-01
540.80	4.1814E-01
541.00	4.1937E-01
541.20	4.2389E-01
541.39	4.2363E-01
541.59	4.2357E-01
541.79	4.2558E-01
541.99	4.3070E-01
542.18	4.2918E-01
542.38	4.3011E-01
542.58	4.2990E-01
542.78	4.3303E-01
542.97	4.2937E-01
543.17	4.3526E-01
543.37	4.3295E-01
543.57	4.3940E-01
543.76	4.4392E-01
543.96	4.4289E-01
544.16	4.4047E-01
544.36	4.4355E-01
544.55	4.4929E-01
544.75	4.4623E-01
544.95	4.4959E-01
545.14	4.4168E-01
545.34	4.5068E-01
545.54	4.4685E-01
545.74	4.4921E-01
545.93	4.5338E-01
546.13	4.5233E-01
546.33	4.4981E-01
546.53	4.4914E-01
546.72	4.5655E-01
546.92	4.5738E-01
547.12	4.5488E-01
547.31	4.5907E-01
547.51	4.5804E-01
547.71	4.6351E-01
547.91	4.6367E-01
548.10	4.5757E-01
548.30	4.6129E-01
548.50	4.6845E-01
548.69	4.6714E-01
548.89	4.6665E-01
549.09	4.6808E-01
549.29	4.6682E-01
549.48	4.7683E-01
549.68	4.6744E-01
549.88	4.7403E-01
550.07	4.7632E-01
550.27	4.7625E-01
550.47	4.5830E-01
550.66	4.8369E-01
550.86	4.7393E-01
551.06	4.8459E-01
551.25	4.7866E-01
551.45	4.8512E-01
551.65	4.8570E-01
551.85	4.8901E-01
552.04	4.7882E-01
552.24	4.8608E-01
552.44	4.8294E-01
552.63	4.8274E-01
552.83	4.8714E-01
553.03	4.8188E-01
553.22	4.9146E-01
553.42	4.8556E-01
553.62	4.9323E-01
553.81	4.8659E-01
554.01	4.9164E-01
554.21	4.8639E-01
554.40	4.9055E-01
554.60	4.8867E-01
554.80	4.9153E-01
554.99	4.9118E-01
555.19	4.9065E-01
555.39	4.9197E-01
555.58	4.8784E-01
555.78	4.8961E-01
555.98	4.8812E-01
556.17	4.8775E-01
556.37	4.8990E-01
556.56	4.8954E-01
556.76	4.8929E-01
556.96	4.8574E-01
557.15	4.8806E-01
557.35	4.8653E-01
557.55	4.8643E-01
557.74	4.8646E-01
557.94	4.8959E-01
558.14	4.9126E-01
558.33	4.8538E-01
558.53	4.8503E-01
558.73	4.8851E-01
558.92	4.8406E-01
559.12	4.9236E-01
559.31	4.9331E-01
559.51	4.9656E-01
559.71	4.9114E-01
559.90	4.9475E-01
560.10	4.9500E-01
560.30	4.9506E-01
560.49	4.9218E-01
560.69	4.9739E-01
560.88	5.0120E-01
561.08	4.9305E-01
561.28	4.9524E-01
561.47	4.9963E-01
561.67	5.0066E-01
561.86	4.9724E-01
562.06	5.0013E-01
562.26	5.0324E-01
562.45	4.9961E-01
562.65	5.0261E-01
562.84	4.9655E-01
563.04	4.9984E-01
563.24	4.9935E-01
563.43	5.0453E-01
563.63	5.0468E-01
563.82	5.0192E-01
564.02	5.0544E-01
564.22	5.0709E-01
564.41	4.9982E-01
564.61	5.0378E-01
564.80	5.0416E-01
565.00	5.0030E-01
565.20	5.0576E-01
565.39	4.9755E-01
565.59	4.9448E-01
565.78	4.9933E-01
565.98	4.9336E-01
566.18	5.0190E-01
566.37	4.9851E-01
566.57	4.9617E-01
566.76	4.9367E-01
566.96	5.0000E-01
567.15	4.9369E-01
567.35	5.0128E-01
567.55	4.9616E-01
567.74	4.9623E-01
567.94	4.9180E-01
568.13	4.9536E-01
568.33	4.9895E-01
568.52	4.9753E-01
568.72	4.9322E-01
568.91	4.9114E-01
569.11	4.9229E-01
569.31	4.9880E-01
569.50	4.9144E-01
569.70	4.9568E-01
569.89	4.9429E-01
570.09	4.9328E-01
570.28	4.9179E-01
570.48	4.9376E-01
570.67	4.9887E-01
570.87	4.9096E-01
571.07	4.9114E-01
571.26	4.9688E-01
571.46	4.9599E-01
571.65	4.9803E-01
571.85	5.0024E-01
572.04	4.9697E-01
572.24	5.0260E-01
572.43	4.9638E-01
572.63	5.0143E-01
572.82	4.9681E-01
573.02	5.0132E-01
573.21	4.9630E-01
573.41	4.9905E-01
573.60	5.0289E-01
573.80	5.0068E-01
573.99	4.9768E-01
574.19	5.0350E-01
574.38	4.9909E-01
574.58	5.0154E-01
574.78	4.9590E-01
574.97	5.0176E-01
575.17	4.9969E-01
575.36	4.9616E-01
575.56	4.9283E-01
575.75	5.0084E-01
575.95	4.9604E-01
576.14	4.9323E-01
576.34	5.0002E-01
576.53	4.9423E-01
576.73	4.9638E-01
576.92	4.9150E-01
577.12	5.0146E-01
577.31	4.8915E-01
577.51	5.0195E-01
577.70	4.9757E-01
577.90	4.9755E-01
578.09	5.0033E-01
578.29	4.9576E-01
578.48	5.0272E-01
578.68	4.9862E-01
578.87	5.0733E-01
579.06	4.9849E-01
579.26	5.0310E-01
579.45	5.0076E-01
579.65	5.1110E-01
579.84	5.0542E-01
580.04	5.0975E-01
580.23	5.1351E-01
580.43	5.0452E-01
580.62	5.1155E-01
580.82	5.1213E-01
581.01	5.1111E-01
581.21	5.1127E-01
581.40	5.1018E-01
581.60	5.1717E-01
581.79	5.1862E-01
581.99	5.1361E-01
582.18	5.1471E-01
582.37	5.1793E-01
582.57	5.1795E-01
582.76	5.2165E-01
582.96	5.2313E-01
583.15	5.2193E-01
583.35	5.2186E-01
583.54	5.2241E-01
583.74	5.2131E-01
583.93	5.1703E-01
584.12	5.1350E-01
584.32	5.2254E-01
584.51	5.1823E-01
584.71	5.1108E-01
584.90	5.1238E-01
585.10	5.1221E-01
585.29	5.1192E-01
585.49	5.1247E-01
585.68	5.1405E-01
585.87	5.1084E-01
586.07	5.0835E-01
586.26	5.0579E-01
586.46	5.0526E-01
586.65	5.0253E-01
586.85	5.0325E-01
587.04	4.9280E-01
587.23	5.0162E-01
587.43	4.9776E-01
587.62	4.8668E-01
587.82	4.9557E-01
588.01	4.8961E-01
588.20	4.9147E-01
588.40	4.8597E-01
588.59	4.9044E-01
588.79	4.9215E-01
588.98	4.9534E-01
589.18	4.9110E-01
589.37	4.9572E-01
589.56	4.8901E-01
589.76	4.8741E-01
589.95	4.9830E-01
590.15	4.9479E-01
590.34	4.9144E-01
590.53	5.0121E-01
590.73	4.9669E-01
590.92	4.9862E-01
591.11	5.0383E-01
591.31	5.0473E-01
591.50	5.0898E-01
591.70	5.0736E-01
591.89	5.1404E-01
592.08	5.0683E-01
592.28	5.0491E-01
592.47	5.1424E-01
592.67	5.1421E-01
592.86	5.1489E-01
593.05	5.0840E-01
593.25	5.1736E-01
593.44	5.1504E-01
593.63	5.2260E-01
593.83	5.1664E-01
594.02	5.2537E-01
594.22	5.2555E-01
594.41	5.2970E-01
594.60	5.2400E-01
594.80	5.2611E-01
594.99	5.2715E-01
595.18	5.2806E-01
595.38	5.2601E-01
595.57	5.2898E-01
595.76	5.3125E-01
595.96	5.3032E-01
596.15	5.2517E-01
596.34	5.3998E-01
596.54	5.3954E-01
596.73	5.3572E-01
596.93	5.4007E-01
597.12	5.3683E-01
597.31	5.4200E-01
597.51	5.3849E-01
597.70	5.4027E-01
597.89	5.3839E-01
598.09	5.3751E-01
598.28	5.5074E-01
598.47	5.4075E-01
598.67	5.4361E-01
598.86	5.3910E-01
599.05	5.4978E-01
599.25	5.4606E-01
599.44	5.4999E-01
599.63	5.5440E-01
599.83	5.4749E-01
600.02	5.4887E-01
600.21	5.5026E-01
600.41	5.5362E-01
600.60	5.4729E-01
600.79	5.5342E-01
600.98	5.5265E-01
601.18	5.6005E-01
601.37	5.5045E-01
601.56	5.5337E-01
601.76	5.6601E-01
601.95	5.5539E-01
602.14	5.5868E-01
602.34	5.5896E-01
602.53	5.6615E-01
602.72	5.5946E-01
602.92	5.6591E-01
603.11	5.6226E-01
603.30	5.6720E-01
603.49	5.6364E-01
603.69	5.7298E-01
603.88	5.6855E-01
604.07	5.7303E-01
604.27	5.6946E-01
604.46	5.6475E-01
604.65	5.7099E-01
604.84	5.7044E-01
605.04	5.7608E-01
605.23	5.7404E-01
605.42	5.7446E-01
605.62	5.7746E-01
605.81	5.7267E-01
606.00	5.7413E-01
606.19	5.7869E-01
606.39	5.7830E-01
606.58	5.7283E-01
606.77	5.7329E-01
606.97	5.6906E-01
607.16	5.7617E-01
607.35	5.7845E-01
607.54	5.7373E-01
607.74	5.8024E-01
607.93	5.8126E-01
608.12	5.7361E-01
608.31	5.7575E-01
608.51	5.7698E-01
608.70	5.7311E-01
608.89	5.7116E-01
609.08	5.6675E-01
609.28	5.7284E-01
609.47	5.7384E-01
609.66	5.7515E-01
609.85	5.7611E-01
610.05	5.7745E-01
610.24	5.7096E-01
610.43	5.7459E-01
610.62	5.7237E-01
610.82	5.7101E-01
611.01	5.7596E-01
611.20	5.7319E-01
611.39	5.7397E-01
611.59	5.7363E-01
611.78	5.7704E-01
611.97	5.7579E-01
612.16	5.8176E-01
612.35	5.7383E-01
612.55	5.7515E-01
612.74	5.8045E-01
612.93	5.7992E-01
613.12	5.7296E-01
613.32	5.7678E-01
613.51	5.7831E-01
613.70	5.7697E-01
613.89	5.7794E-01
614.08	5.7975E-01
614.28	5.7815E-01
614.47	5.7519E-01
614.66	5.7790E-01
614.85	5.8301E-01
615.04	5.8241E-01
615.24	5.8912E-01
615.43	5.8338E-01
615.62	5.8186E-01
615.81	5.8291E-01
616.00	5.7624E-01
616.20	5.8490E-01
616.39	5.8697E-01
616.58	5.8801E-01
616.77	5.8904E-01
616.96	5.9977E-01
617.16	6.0049E-01
617.35	5.9962E-01
617.54	5.9705E-01
617.73	5.9599E-01
617.92	5.9836E-01
618.12	6.0694E-01
618.31	6.0532E-01
618.50	6.0884E-01
618.69	6.0649E-01
618.88	6.1659E-01
619.07	6.1179E-01
619.27	6.1494E-01
619.46	6.1696E-01
619.65	6.2356E-01
619.84	6.1625E-01
620.03	6.1487E-01
620.22	6.2434E-01
620.42	6.1046E-01
620.61	6.2670E-01
620.80	6.2323E-01
620.99	6.2221E-01
621.18	6.2909E-01
621.37	6.2030E-01
621.57	6.1200E-01
621.76	6.2388E-01
621.95	6.2215E-01
622.14	6.1651E-01
622.33	6.1363E-01
622.52	6.1796E-01
622.71	6.2384E-01
622.91	6.2630E-01
623.10	6.2405E-01
623.29	6.2252E-01
623.48	6.1913E-01
623.67	6.2409E-01
623.86	6.2386E-01
624.05	6.2386E-01
624.25	6.1761E-01
624.44	6.2582E-01
624.63	6.2917E-01
624.82	6.2543E-01
625.01	6.2155E-01
625.20	6.2882E-01
625.39	6.1847E-01
625.58	6.2780E-01
625.78	6.3018E-01
625.97	6.1779E-01
626.16	6.2350E-01
626.35	6.2241E-01
626.54	6.3035E-01
626.73	6.3083E-01
626.92	6.2717E-01
627.11	6.2665E-01
627.31	6.2626E-01
627.50	6.2570E-01
627.69	6.3069E-01
627.88	6.3353E-01
628.07	6.1571E-01
628.26	6.2676E-01
628.45	6.2447E-01
628.64	6.2858E-01
628.83	6.2861E-01
629.02	6.1749E-01
629.22	6.3924E-01
629.41	6.2787E-01
629.60	6.2003E-01
629.79	6.3752E-01
629.98	6.2996E-01
630.17	6.3571E-01
630.36	6.3447E-01
630.55	6.3608E-01
630.74	6.3756E-01
630.93	6.4338E-01
631.12	6.3228E-01
631.31	6.3455E-01
631.51	6.4290E-01
631.70	6.4174E-01
631.89	6.3558E-01
632.08	6.3884E-01
632.27	6.4270E-01
632.46	6.3983E-01
632.65	6.4088E-01
632.84	6.3395E-01
633.03	6.4945E-01
633.22	6.4201E-01
633.41	6.4929E-01
633.60	6.4981E-01
633.79	6.4387E-01
633.98	6.3494E-01
634.17	6.4444E-01
634.37	6.4452E-01
634.56	6.4977E-01
634.75	6.3929E-01
634.94	6.4946E-01
635.13	6.4455E-01
635.32	6.5085E-01
635.51	6.5053E-01
635.70	6.4123E-01
635.89	6.5728E-01
636.08	6.4506E-01
636.27	6.3836E-01
636.46	6.4891E-01
636.65	6.4341E-01
636.84	6.3740E-01
637.03	6.4763E-01
637.22	6.4574E-01
637.41	6.4225E-01
637.60	6.4506E-01
637.79	6.4589E-01
637.98	6.4359E-01
638.17	6.4356E-01
638.36	6.3695E-01
638.55	6.3091E-01
638.74	6.3126E-01
638.93	6.3393E-01
639.12	6.3104E-01
639.31	6.3227E-01
639.50	6.2974E-01
639.69	6.2823E-01
639.88	6.3685E-01
640.07	6.2992E-01
640.26	6.3882E-01
640.45	6.3475E-01
640.64	6.3615E-01
640.83	6.3518E-01
641.02	6.4122E-01
641.21	6.3389E-01
641.40	6.2282E-01
641.59	6.3641E-01
641.78	6.3795E-01
641.97	6.3567E-01
642.16	6.3821E-01
642.35	6.3570E-01
642.54	6.3573E-01
642.73	6.3207E-01
642.92	6.1677E-01
643.11	6.3538E-01
643.30	6.3709E-01
643.49	6.2668E-01
643.68	6.2930E-01
643.87	6.2028E-01
644.06	6.2732E-01
644.25	6.2053E-01
644.44	6.2146E-01
644.63	6.1960E-01
644.82	6.1867E-01
645.01	6.2260E-01
645.20	6.2027E-01
645.39	6.1404E-01
645.58	6.1030E-01
645.77	6.1083E-01
645.96	6.1762E-01
646.15	6.1157E-01
646.34	6.1267E-01
646.53	6.1032E-01
646.72	6.1104E-01
646.91	6.0267E-01
647.10	6.1808E-01
647.29	6.0621E-01
647.47	6.1195E-01
647.66	6.0492E-01
647.85	6.0060E-01
648.04	6.0095E-01
648.23	6.0067E-01
648.42	6.1690E-01
648.61	5.9595E-01
648.80	6.0522E-01
648.99	6.1059E-01
649.18	6.0062E-01
649.37	6.1138E-01
649.56	6.0665E-01
649.75	6.0412E-01
649.94	6.1374E-01
650.13	6.1154E-01
650.31	6.1430E-01
650.50	6.0923E-01
650.69	6.1429E-01
650.88	6.0970E-01
651.07	6.1231E-01
651.26	6.1581E-01
651.45	6.2570E-01
651.64	6.1940E-01
651.83	6.1245E-01
652.02	6.1896E-01
652.21	6.1486E-01
652.40	6.1403E-01
652.58	6.2722E-01
652.77	6.0927E-01
652.96	6.0560E-01
653.15	6.1284E-01
653.34	6.1042E-01
653.53	6.0986E-01
653.72	6.0617E-01
653.91	5.9541E-01
654.10	5.9786E-01
654.29	5.8910E-01
654.47	6.0210E-01
654.66	5.8183E-01
654.85	5.8414E-01
655.04	5.7686E-01
655.23	5.8423E-01
655.42	5.7224E-01
655.61	5.8063E-01
655.80	5.7749E-01
655.98	5.8378E-01
656.17	5.8100E-01
656.36	5.8630E-01
656.55	5.8217E-01
656.74	5.9542E-01
656.93	5.9457E-01
657.12	5.9821E-01
657.31	5.8976E-01
657.49	6.0854E-01
657.68	6.0510E-01
657.87	5.9346E-01
658.06	6.1472E-01
658.25	6.0653E-01
658.44	6.1708E-01
658.63	6.1347E-01
658.81	6.1163E-01
659.00	6.2146E-01
659.19	6.1911E-01
659.38	6.3435E-01
659.57	6.3542E-01
659.76	6.2675E-01
659.95	6.4011E-01
660.13	6.2312E-01
660.32	6.3572E-01
660.51	6.3192E-01
660.70	6.4061E-01
660.89	6.3372E-01
661.08	6.3661E-01
661.26	6.3285E-01
661.45	6.4071E-01
661.64	6.3520E-01
661.83	6.3434E-01
662.02	6.3804E-01
662.21	6.4307E-01
662.39	6.4635E-01
662.58	6.3868E-01
662.77	6.5297E-01
662.96	6.4551E-01
663.15	6.3710E-01
663.33	6.4988E-01
663.52	6.4034E-01
663.71	6.4070E-01
663.90	6.4104E-01
664.09	6.3174E-01
664.28	6.3870E-01
664.46	6.3333E-01
664.65	6.3418E-01
664.84	6.2817E-01
665.03	6.3699E-01
665.22	6.3930E-01
665.40	6.3803E-01
665.59	6.3315E-01
665.78	6.3262E-01
665.97	6.3232E-01
666.16	6.3958E-01
666.34	6.4557E-01
666.53	6.3348E-01
666.72	6.4601E-01
666.91	6.3949E-01
667.09	6.4025E-01
667.28	6.4726E-01
667.47	6.4590E-01
667.66	6.4190E-01
667.85	6.4102E-01
668.03	6.1718E-01
668.22	6.4889E-01
668.41	6.4333E-01
668.60	6.2812E-01
668.78	6.4985E-01
668.97	6.4272E-01
669.16	6.3711E-01
669.35	6.5091E-01
669.54	6.3604E-01
669.72	6.5020E-01
669.91	6.4239E-01
670.10	6.4540E-01
670.29	6.4308E-01
670.47	6.4900E-01
670.66	6.5192E-01
670.85	6.4289E-01
671.04	6.3358E-01
671.22	6.3254E-01
671.41	6.4241E-01
671.60	6.4416E-01
671.79	6.4623E-01
671.97	6.3949E-01
672.16	6.5416E-01
672.35	6.4836E-01
672.54	6.4945E-01
672.72	6.4243E-01
672.91	6.3720E-01
673.10	6.4338E-01
673.28	6.3990E-01
673.47	6.4217E-01
673.66	6.4361E-01
673.85	6.5765E-01
674.03	6.4964E-01
674.22	6.4986E-01
674.41	6.4367E-01
674.60	6.4386E-01
674.78	6.3463E-01
674.97	6.4055E-01
675.16	6.6501E-01
675.34	6.5435E-01
675.53	6.4639E-01
675.72	6.4097E-01
675.91	6.6236E-01
676.09	6.5264E-01
676.28	6.5982E-01
676.47	6.5440E-01
676.65	6.4179E-01
676.84	6.5224E-01
677.03	6.5877E-01
677.22	6.4908E-01
677.40	6.5857E-01
677.59	6.5414E-01
677.78	6.4938E-01
677.96	6.5455E-01
678.15	6.6142E-01
678.34	6.6911E-01
678.52	6.5092E-01
678.71	6.5403E-01
678.90	6.5682E-01
679.08	6.6045E-01
679.27	6.5067E-01
679.46	6.6790E-01
679.64	6.5970E-01
679.83	6.5469E-01
680.02	6.5632E-01
680.21	6.4035E-01
680.39	6.6540E-01
680.58	6.5795E-01
680.77	6.5344E-01
680.95	6.5480E-01
681.14	6.4220E-01
681.33	6.5445E-01
681.51	6.6111E-01
681.70	6.5735E-01
681.89	6.6179E-01
682.07	6.5433E-01
682.26	6.4079E-01
682.44	6.5895E-01
682.63	6.5677E-01
682.82	6.6027E-01
683.00	6.3497E-01
683.19	6.4891E-01
683.38	6.5232E-01
683.56	6.5238E-01
683.75	6.4457E-01
683.94	6.2948E-01
684.12	6.2770E-01
684.31	6.3736E-01
684.50	6.3717E-01
684.68	6.2244E-01
684.87	6.2046E-01
685.05	6.2209E-01
685.24	6.0701E-01
685.43	6.1308E-01
685.61	6.1091E-01
685.80	5.9790E-01
685.99	6.0574E-01
686.17	5.9064E-01
686.36	6.0507E-01
686.54	6.0256E-01
686.73	5.9717E-01
686.92	5.9761E-01
687.10	5.9171E-01
687.29	6.0169E-01
687.48	5.9231E-01
687.66	6.1239E-01
687.85	5.9868E-01
688.03	6.0402E-01
688.22	5.9458E-01
688.41	6.1209E-01
688.59	5.9898E-01
688.78	6.1685E-01
688.96	6.2262E-01
689.15	6.3263E-01
689.34	6.0833E-01
689.52	6.4149E-01
689.71	6.3259E-01
689.89	6.4074E-01
690.08	6.5362E-01
690.27	6.4477E-01
690.45	6.4382E-01
690.64	6.4372E-01
690.82	6.3900E-01
691.01	6.5383E-01
691.19	6.5155E-01
691.38	6.5935E-01
691.57	6.6728E-01
691.75	6.5695E-01
691.94	6.7394E-01
692.12	6.6642E-01
692.31	6.7929E-01
692.50	6.7380E-01
692.68	6.8236E-01
692.87	6.9134E-01
693.05	6.8686E-01
693.24	6.7616E-01
693.42	6.8474E-01
693.61	6.9438E-01
693.79	7.0594E-01
693.98	6.9571E-01
694.17	7.0790E-01
694.35	7.2107E-01
694.54	7.2569E-01
694.72	7.2300E-01
694.91	7.2834E-01
695.09	7.3234E-01
695.28	7.3656E-01
695.46	7.4314E-01
695.65	7.4947E-01
695.83	7.5521E-01
696.02	7.6646E-01
696.21	7.7135E-01
696.39	7.6415E-01
696.58	7.7510E-01
696.76	7.5476E-01
696.95	7.7015E-01
697.13	7.7683E-01
697.32	7.8504E-01
697.50	7.8770E-01
697.69	7.9259E-01
697.87	8.0181E-01
698.06	8.0339E-01
698.24	7.9472E-01
698.43	8.0081E-01
698.61	8.1921E-01
698.80	8.1051E-01
698.98	8.2278E-01
699.17	7.9795E-01
699.35	8.2013E-01
699.54	8.1526E-01
699.72	8.0392E-01
699.91	8.3085E-01
700.09	8.3412E-01
700.28	8.3923E-01
700.46	8.4393E-01
700.65	8.4096E-01
700.83	8.5097E-01
701.02	8.5909E-01
701.20	8.3709E-01
701.39	8.7071E-01
701.57	8.6532E-01
701.76	8.5547E-01
701.94	8.6859E-01
702.13	8.7623E-01
702.31	8.5872E-01
702.50	9.0853E-01
702.68	9.0232E-01
702.87	9.1185E-01
703.05	9.1832E-01
703.24	9.1514E-01
703.42	8.9336E-01
703.61	9.3255E-01
703.79	9.4150E-01
703.98	9.2387E-01
704.16	9.3868E-01
704.35	9.3686E-01
704.53	9.4966E-01
704.72	9.5429E-01
704.90	9.6179E-01
705.08	9.5217E-01
705.27	9.8008E-01
705.45	9.8071E-01
705.64	9.9266E-01
705.82	9.9220E-01
706.01	9.9645E-01
706.19	9.9342E-01
706.38	1.0028E00
706.56	1.0224E00
706.75	1.0232E00
706.93	1.0211E00
707.11	1.0104E00
707.30	1.0355E00
707.48	1.0366E00
707.67	1.0284E00
707.85	1.0391E00
708.04	1.0504E00
708.22	1.0515E00
708.40	1.0466E00
708.59	1.0463E00
708.77	1.0721E00
708.96	1.0682E00
709.14	1.0785E00
709.33	1.0753E00
709.51	1.0864E00
709.69	1.0901E00
709.88	1.0979E00
710.06	1.0975E00
710.25	1.0898E00
710.43	1.1040E00
710.62	1.1164E00
710.80	1.1123E00
710.98	1.1219E00
711.17	1.1203E00
711.35	1.1301E00
711.54	1.1374E00
711.72	1.1269E00
711.90	1.1415E00
712.09	1.1455E00
712.27	1.1294E00
712.46	1.1447E00
712.64	1.1352E00
712.82	1.1554E00
713.01	1.1562E00
713.19	1.1554E00
713.37	1.1453E00
713.56	1.1421E00
713.74	1.1544E00
713.93	1.1408E00
714.11	1.1313E00
714.29	1.1130E00
714.48	1.1315E00
714.66	1.1241E00
714.85	1.1072E00
715.03	1.1038E00
715.21	1.0931E00
715.40	1.0756E00
715.58	1.0710E00
715.76	1.0557E00
715.95	1.0525E00
716.13	1.0619E00
716.31	1.0451E00
716.50	1.0324E00
716.68	1.0181E00
716.87	1.0230E00
717.05	1.0162E00
717.23	9.9749E-01
717.42	1.0045E00
717.60	9.9322E-01
717.78	9.9876E-01
717.97	9.9994E-01
718.15	9.9675E-01
718.33	9.9277E-01
718.52	1.0074E00
718.70	1.0153E00
718.88	1.0070E00
719.07	1.0417E00
719.25	1.0285E00
719.43	1.0424E00
719.62	1.0420E00
719.80	1.0498E00
719.98	1.0752E00
720.17	1.0745E00
720.35	1.0831E00
720.53	1.1022E00
720.72	1.1132E00
720.90	1.1099E00
721.08	1.1084E00
721.27	1.1183E00
721.45	1.1230E00
721.63	1.1245E00
721.82	1.1355E00
722.00	1.1295E00
722.18	1.1334E00
722.36	1.1492E00
722.55	1.1451E00
722.73	1.1468E00
722.91	1.1460E00
723.10	1.1572E00
723.28	1.1490E00
723.46	1.1253E00
723.65	1.1455E00
723.83	1.1489E00
724.01	1.1460E00
724.19	1.1580E00
724.38	1.1605E00
724.56	1.1702E00
724.74	1.1784E00
724.93	1.1560E00
725.11	1.1642E00
725.29	1.1845E00
725.47	1.1854E00
725.66	1.1877E00
725.84	1.1844E00
726.02	1.1901E00
726.21	1.2070E00
726.39	1.1959E00
726.57	1.2043E00
726.75	1.2030E00
726.94	1.2244E00
727.12	1.2143E00
727.30	1.2182E00
727.48	1.2159E00
727.67	1.2360E00
727.85	1.2292E00
728.03	1.2417E00
728.21	1.2581E00
728.40	1.2465E00
728.58	1.2718E00
728.76	1.2677E00
728.94	1.2833E00
729.13	1.2987E00
729.31	1.2867E00
729.49	1.3097E00
729.67	1.3197E00
729.86	1.3337E00
730.04	1.3264E00
730.22	1.3594E00
730.40	1.3655E00
730.59	1.3766E00
730.77	1.3907E00
730.95	1.4149E00
731.13	1.4178E00
731.31	1.4334E00
731.50	1.4249E00
731.68	1.4661E00
731.86	1.4652E00
732.04	1.4838E00
732.23	1.5036E00
732.41	1.5033E00
732.59	1.5178E00
732.77	1.5271E00
732.95	1.5363E00
733.14	1.5395E00
733.32	1.5642E00
733.50	1.5626E00
733.68	1.5675E00
733.86	1.5758E00
734.05	1.5918E00
734.23	1.6015E00
734.41	1.5841E00
734.59	1.6029E00
734.77	1.6126E00
734.96	1.5981E00
735.14	1.6313E00
735.32	1.6316E00
735.50	1.6335E00
735.68	1.6551E00
735.87	1.6477E00
736.05	1.6754E00
736.23	1.6432E00
736.41	1.6754E00
736.59	1.6743E00
736.77	1.6742E00
736.96	1.6749E00
737.14	1.6687E00
737.32	1.6990E00
737.50	1.7108E00
737.68	1.7071E00
737.87	1.7185E00
738.05	1.7342E00
738.23	1.7062E00
738.41	1.7235E00
738.59	1.7334E00
738.77	1.7404E00
738.95	1.7577E00
739.14	1.7386E00
739.32	1.7464E00
739.50	1.7763E00
739.68	1.7558E00
739.86	1.7680E00
740.04	1.7730E00
740.23	1.7638E00
740.41	1.7932E00
740.59	1.7998E00
740.77	1.8138E00
740.95	1.8059E00
741.13	1.8024E00
741.31	1.8008E00
741.50	1.8096E00
741.68	1.8077E00
741.86	1.8108E00
742.04	1.8358E00
742.22	1.8452E00
742.40	1.8418E00
742.58	1.8548E00
742.76	1.8645E00
742.95	1.8410E00
743.13	1.8797E00
743.31	1.8748E00
743.49	1.8721E00
743.67	1.8927E00
743.85	1.8882E00
744.03	1.8804E00
744.21	1.8938E00
744.39	1.8819E00
744.58	1.9049E00
744.76	1.9073E00
744.94	1.9236E00
745.12	1.9146E00
745.30	1.9082E00
745.48	1.9262E00
745.66	1.9316E00
745.84	1.9080E00
746.02	1.9107E00
746.20	1.9235E00
746.38	1.9307E00
746.57	1.9449E00
746.75	1.9038E00
746.93	1.9325E00
747.11	1.9123E00
747.29	1.9262E00
747.47	1.9417E00
747.65	1.9363E00
747.83	1.9097E00
748.01	1.9296E00
748.19	1.9327E00
748.37	1.9336E00
748.55	1.9329E00
748.73	1.9243E00
748.92	1.9362E00
749.10	1.9226E00
749.28	1.9424E00
749.46	1.9311E00
749.64	1.9263E00
749.82	1.9340E00
750.00	1.9487E00
750.18	1.9450E00
750.36	1.9288E00
750.54	1.9515E00
750.72	1.9636E00
750.90	1.9656E00
751.08	1.9564E00
751.26	1.9722E00
751.44	1.9741E00
751.62	1.9890E00
751.80	1.9771E00
751.98	1.9892E00
752.16	1.9954E00
752.34	2.0032E00
752.52	2.0151E00
752.71	1.9905E00
752.89	1.9908E00
753.07	2.0282E00
753.25	1.9997E00
753.43	2.0366E00
753.61	2.0190E00
753.79	2.0532E00
753.97	2.0510E00
754.15	2.0577E00
754.33	2.0696E00
754.51	2.0750E00
754.69	2.0795E00
754.87	2.0727E00
755.05	2.0760E00
755.23	2.0932E00
755.41	2.1039E00
755.59	2.0229E00
755.77	2.0645E00
755.95	2.0542E00
756.13	2.0151E00
756.31	2.0277E00
756.49	2.0114E00
756.67	1.9738E00
756.85	1.9447E00
757.03	1.9089E00
757.21	1.8808E00
757.39	1.8546E00
757.57	1.8222E00
757.75	1.7590E00
757.93	1.7009E00
758.11	1.6756E00
758.29	1.6368E00
758.47	1.5880E00
758.65	1.5582E00
758.83	1.5496E00
759.01	1.4981E00
759.18	1.4502E00
759.36	1.3866E00
759.54	1.3839E00
759.72	1.3348E00
759.90	1.3275E00
760.08	1.3059E00
760.26	1.2911E00
760.44	1.2567E00
760.62	1.2306E00
760.80	1.2270E00
760.98	1.2584E00
761.16	1.2549E00
761.34	1.2406E00
761.52	1.2674E00
761.70	1.2423E00
761.88	1.2534E00
762.06	1.2626E00
762.24	1.2665E00
762.42	1.2817E00
762.60	1.2950E00
762.78	1.3205E00
762.95	1.3319E00
763.13	1.3658E00
763.31	1.3934E00
763.49	1.4069E00
763.67	1.4396E00
763.85	1.4472E00
764.03	1.5120E00
764.21	1.5189E00
764.39	1.5662E00
764.57	1.6146E00
764.75	1.6351E00
764.93	1.6995E00
765.11	1.6978E00
765.28	1.7576E00
765.46	1.7827E00
765.64	1.8058E00
765.82	1.8485E00
766.00	1.8878E00
766.18	1.9150E00
766.36	1.9383E00
766.54	1.9561E00
766.72	1.9864E00
766.90	2.0417E00
767.07	2.0227E00
767.25	2.0616E00
767.43	2.0857E00
767.61	2.1187E00
767.79	2.1377E00
767.97	2.1484E00
768.15	2.1523E00
768.33	2.1542E00
768.51	2.1907E00
768.68	2.2006E00
768.86	2.1955E00
769.04	2.2087E00
769.22	2.2557E00
769.40	2.2562E00
769.58	2.2444E00
769.76	2.2847E00
769.94	2.2849E00
770.11	2.2640E00
770.29	2.2833E00
770.47	2.2811E00
770.65	2.2869E00
770.83	2.2841E00
771.01	2.3054E00
771.19	2.3060E00
771.36	2.2865E00
771.54	2.3098E00
771.72	2.2945E00
771.90	2.2774E00
772.08	2.3039E00
772.26	2.3192E00
772.44	2.2829E00
772.61	2.3065E00
772.79	2.2822E00
772.97	2.3105E00
773.15	2.3274E00
773.33	2.2886E00
773.51	2.3129E00
773.68	2.2884E00
773.86	2.2782E00
774.04	2.2899E00
774.22	2.2738E00
774.40	2.2823E00
774.58	2.2954E00
774.75	2.2861E00
774.93	2.2535E00
775.11	2.2901E00
775.29	2.2636E00
775.47	2.2429E00
775.64	2.2733E00
775.82	2.2567E00
776.00	2.2627E00
776.18	2.2381E00
776.36	2.2382E00
776.53	2.2703E00
776.71	2.2334E00
776.89	2.2257E00
777.07	2.2402E00
777.25	2.2309E00
777.42	2.2273E00
777.60	2.2095E00
777.78	2.2285E00
777.96	2.2121E00
778.14	2.2333E00
778.31	2.2120E00
778.49	2.1787E00
778.67	2.1887E00
778.85	2.1964E00
779.03	2.2065E00
779.20	2.2019E00
779.38	2.1908E00
779.56	2.1668E00
779.74	2.1937E00
779.91	2.1723E00
780.09	2.1660E00
780.27	2.1458E00
780.45	2.1531E00
780.62	2.1640E00
780.80	2.1671E00
780.98	2.1297E00
781.16	2.1116E00
781.34	2.1445E00
781.51	2.1438E00
781.69	2.1464E00
781.87	2.1333E00
782.05	2.1265E00
782.22	2.1273E00
782.40	2.1130E00
782.58	2.1209E00
782.76	2.0988E00
782.93	2.1210E00
783.11	2.1333E00
783.29	2.0954E00
783.47	2.0934E00
783.64	2.1018E00
783.82	2.0819E00
784.00	2.0543E00
784.17	2.0737E00
784.35	2.0745E00
784.53	2.0612E00
784.71	2.0746E00
784.88	2.0556E00
785.06	2.0795E00
785.24	2.0502E00
785.42	2.0619E00
785.59	2.0461E00
785.77	2.0020E00
785.95	2.0127E00
786.12	1.9897E00
786.30	2.0042E00
786.48	1.9921E00
786.65	1.9774E00
786.83	1.9777E00
787.01	1.9771E00
787.19	1.9649E00
787.36	1.9668E00
787.54	1.9514E00
787.72	1.9567E00
787.89	1.9458E00
788.07	1.9345E00
788.25	1.9253E00
788.42	1.9141E00
788.60	1.9335E00
788.78	1.9069E00
788.96	1.9054E00
789.13	1.8835E00
789.31	1.8853E00
789.49	1.8820E00
789.66	1.8949E00
789.84	1.8686E00
790.02	1.8396E00
790.19	1.8638E00
790.37	1.8712E00
790.55	1.8617E00
790.72	1.8623E00
790.90	1.8829E00
791.08	1.8453E00
791.25	1.8524E00
791.43	1.8538E00
791.61	1.8401E00
791.78	1.8355E00
791.96	1.8087E00
792.14	1.8332E00
792.31	1.8478E00
792.49	1.8045E00
792.67	1.8535E00
792.84	1.8167E00
793.02	1.8184E00
793.19	1.8093E00
793.37	1.8346E00
793.55	1.8310E00
793.72	1.8220E00
793.90	1.7878E00
794.08	1.8066E00
794.25	1.8075E00
794.43	1.7883E00
794.61	1.8031E00
794.78	1.8026E00
794.96	1.7734E00
795.13	1.7948E00
795.31	1.7955E00
795.49	1.7667E00
795.66	1.7829E00
795.84	1.7683E00
796.01	1.7710E00
796.19	1.7581E00
796.37	1.7789E00
796.54	1.7709E00
796.72	1.7766E00
796.90	1.7606E00
797.07	1.7412E00
797.25	1.7626E00
797.42	1.7761E00
797.60	1.7709E00
797.78	1.7583E00
797.95	1.7398E00
798.13	1.7264E00
798.30	1.7493E00
798.48	1.7403E00
798.66	1.7611E00
798.83	1.7184E00
799.01	1.7407E00
799.18	1.7223E00
799.36	1.7494E00
799.53	1.6947E00
799.71	1.7334E00
799.89	1.7076E00
800.06	1.7073E00
800.24	1.7050E00
800.41	1.6753E00
800.59	1.7146E00
800.76	1.6777E00
800.94	1.6726E00
801.12	1.6920E00
801.29	1.6852E00
801.47	1.6895E00
801.64	1.6570E00
801.82	1.6831E00
801.99	1.6788E00
802.17	1.6771E00
802.34	1.6642E00
802.52	1.6629E00
802.70	1.6754E00
802.87	1.6475E00
803.05	1.6361E00
803.22	1.6848E00
803.40	1.6570E00
803.57	1.6536E00
803.75	1.6776E00
803.92	1.6570E00
804.10	1.6238E00
804.27	1.6317E00
804.45	1.6445E00
804.63	1.6390E00
804.80	1.6319E00
804.98	1.6503E00
805.15	1.6179E00
805.33	1.6707E00
805.50	1.6748E00
805.68	1.6654E00
805.85	1.6721E00
806.03	1.6494E00
806.20	1.6528E00
806.38	1.6010E00
806.55	1.6148E00
806.73	1.6615E00
806.90	1.6293E00
807.08	1.6202E00
807.25	1.5944E00
807.43	1.6206E00
807.60	1.6315E00
807.78	1.5991E00
807.95	1.5694E00
808.13	1.5842E00
808.30	1.5735E00
808.48	1.5987E00
808.65	1.5814E00
808.83	1.6094E00
809.00	1.5746E00
809.18	1.5971E00
809.35	1.5454E00
809.53	1.5783E00
809.70	1.5572E00
809.88	1.5554E00
810.05	1.5435E00
810.23	1.5519E00
810.40	1.5347E00
810.57	1.5263E00
810.75	1.4965E00
810.92	1.4886E00
811.10	1.4889E00
811.27	1.4596E00
811.45	1.4686E00
811.62	1.4484E00
811.80	1.4270E00
811.97	1.4405E00
812.15	1.4354E00
812.32	1.4274E00
812.50	1.3758E00
812.67	1.4359E00
812.84	1.3682E00
813.02	1.3844E00
813.19	1.3686E00
813.37	1.3632E00
813.54	1.3288E00
813.72	1.3287E00
813.89	1.2933E00
814.07	1.3045E00
814.24	1.3038E00
814.41	1.3030E00
814.59	1.2622E00
814.76	1.2494E00
814.94	1.2643E00
815.11	1.2674E00
815.29	1.1995E00
815.46	1.2062E00
815.63	1.2153E00
815.81	1.2115E00
815.98	1.1622E00
816.16	1.1661E00
816.33	1.2029E00
816.50	1.2156E00
816.68	1.1959E00
816.85	1.1769E00
817.03	1.1967E00
817.20	1.1834E00
817.37	1.2026E00
817.55	1.1830E00
817.72	1.1974E00
817.90	1.1671E00
818.07	1.1948E00
818.24	1.1618E00
818.42	1.1775E00
818.59	1.1790E00
818.77	1.1804E00
818.94	1.2089E00
819.11	1.1727E00
819.29	1.2149E00
819.46	1.2100E00
819.64	1.1668E00
819.81	1.2285E00
819.98	1.2195E00
820.16	1.1837E00
820.33	1.2055E00
820.50	1.2013E00
820.68	1.1763E00
820.85	1.1992E00
821.02	1.1866E00
821.20	1.1639E00
821.37	1.1893E00
821.55	1.1447E00
821.72	1.1700E00
821.89	1.1741E00
822.07	1.1972E00
822.24	1.1947E00
822.41	1.1456E00
822.59	1.2198E00
822.76	1.2183E00
822.93	1.1798E00
823.11	1.1935E00
823.28	1.2103E00
823.45	1.1921E00
823.63	1.1962E00
823.80	1.2232E00
823.97	1.1631E00
824.15	1.2325E00
824.32	1.2041E00
824.49	1.2582E00
824.67	1.2164E00
824.84	1.2347E00
825.01	1.2325E00
825.19	1.2387E00
825.36	1.2394E00
825.53	1.2618E00
825.71	1.2497E00
825.88	1.2532E00
826.05	1.2123E00
826.23	1.2403E00
826.40	1.2185E00
826.57	1.2196E00
826.75	1.2066E00
826.92	1.1865E00
827.09	1.1850E00
827.26	1.2495E00
827.44	1.2188E00
827.61	1.2501E00
827.78	1.2265E00
827.96	1.1778E00
828.13	1.2430E00
828.30	1.2223E00
828.48	1.2096E00
828.65	1.2025E00
828.82	1.2037E00
828.99	1.2027E00
829.17	1.2101E00
829.34	1.1551E00
829.51	1.1990E00
829.68	1.2341E00
829.86	1.2225E00
830.03	1.2003E00
830.20	1.2136E00
830.38	1.2008E00
830.55	1.1702E00
830.72	1.2064E00
830.89	1.1639E00
831.07	1.1634E00
831.24	1.1600E00
831.41	1.1726E00
831.58	1.2023E00
831.76	1.2274E00
831.93	1.2055E00
832.10	1.2055E00
832.27	1.1569E00
832.45	1.1566E00
832.62	1.1970E00
832.79	1.1735E00
832.96	1.2057E00
833.14	1.1597E00
833.31	1.2252E00
833.48	1.1983E00
833.65	1.1792E00
833.83	1.2326E00
834.00	1.2418E00
834.17	1.2074E00
834.34	1.2271E00
834.51	1.2098E00
834.69	1.1956E00
834.86	1.2438E00
835.03	1.2141E00
835.20	1.2417E00
835.38	1.2187E00
835.55	1.2251E00
835.72	1.2095E00
835.89	1.2792E00
836.06	1.2142E00
836.24	1.2141E00
836.41	1.1979E00
836.58	1.2530E00
836.75	1.2470E00
836.92	1.2363E00
837.10	1.2107E00
837.27	1.2283E00
837.44	1.2076E00
837.61	1.2652E00
837.78	1.2200E00
837.96	1.2466E00
838.13	1.2323E00
838.30	1.2607E00
838.47	1.2446E00
838.64	1.2343E00
838.82	1.2299E00
838.99	1.2799E00
839.16	1.2273E00
839.33	1.2336E00
839.50	1.2809E00
839.67	1.2566E00
839.85	1.2066E00
840.02	1.2509E00
840.19	1.2283E00
840.36	1.2772E00
840.53	1.2199E00
840.70	1.2175E00
840.88	1.2730E00
841.05	1.2854E00
841.22	1.2564E00
841.39	1.2566E00
841.56	1.2606E00
841.73	1.2509E00
841.91	1.2754E00
842.08	1.2724E00
842.25	1.2660E00
842.42	1.2780E00
842.59	1.2624E00
842.76	1.3077E00
842.93	1.2619E00
843.11	1.2735E00
843.28	1.2560E00
843.45	1.2599E00
843.62	1.2222E00
843.79	1.2347E00
843.96	1.2823E00
844.13	1.2549E00
844.30	1.2489E00
844.48	1.2737E00
844.65	1.2145E00
844.82	1.1955E00
844.99	1.2320E00
845.16	1.2308E00
845.33	1.2345E00
845.50	1.2291E00
845.67	1.1925E00
845.84	1.2260E00
846.02	1.2063E00
846.19	1.2278E00
846.36	1.2284E00
846.53	1.2712E00
846.70	1.2330E00
846.87	1.1794E00
847.04	1.2326E00
847.21	1.2287E00
847.38	1.2261E00
847.55	1.2257E00
847.73	1.1891E00
847.90	1.2033E00
848.07	1.1738E00
848.24	1.1869E00
848.41	1.1680E00
848.58	1.2580E00
848.75	1.1765E00
848.92	1.2291E00
849.09	1.1849E00
849.26	1.1692E00
849.43	1.1502E00
849.60	1.1702E00
849.77	1.1945E00
849.94	1.0772E00
850.12	1.1941E00
850.29	1.1707E00
850.46	1.1566E00
850.63	1.1433E00
850.80	1.1685E00
850.97	1.1627E00
851.14	1.1163E00
851.31	1.0866E00
851.48	1.1267E00
851.65	1.1372E00
851.82	1.1659E00
851.99	1.1508E00
852.16	1.0730E00
852.33	1.1350E00
852.50	1.1092E00
852.67	1.1152E00
852.84	1.1252E00
853.01	1.1001E00
853.18	1.1240E00
853.35	1.0790E00
853.52	1.1517E00
853.69	1.0979E00
853.86	1.0585E00
854.03	1.0497E00
854.21	1.1004E00
854.38	1.0852E00
854.55	1.1063E00
854.72	1.1136E00
854.89	1.0488E00
855.06	1.0088E00
855.23	1.0705E00
855.40	1.1117E00
855.57	1.0374E00
855.74	1.0592E00
855.91	1.0702E00
856.08	1.0366E00
856.25	1.0722E00
856.42	1.0628E00
856.59	1.0583E00
856.76	1.0735E00
856.93	1.0674E00
857.10	1.0627E00
857.27	1.1158E00
857.44	1.0802E00
857.61	1.0784E00
857.77	1.0381E00
857.94	1.0413E00
858.11	1.0316E00
858.28	1.1000E00
858.45	1.0346E00
858.62	1.0759E00
858.79	1.0526E00
858.96	1.0550E00
859.13	1.0615E00
859.30	1.0903E00
859.47	1.0529E00
859.64	1.0079E00
859.81	1.0959E00
859.98	1.0942E00
860.15	1.0637E00
860.32	1.0424E00
860.49	1.1408E00
860.66	1.0795E00
860.83	1.0873E00
861.00	1.0724E00
861.17	1.0786E00
861.34	1.0857E00
861.51	1.0034E00
861.68	1.0916E00
861.84	1.0743E00
862.01	1.0369E00
862.18	1.0478E00
862.35	1.0680E00
862.52	1.0640E00
862.69	1.0377E00
862.86	1.0524E00
863.03	1.0602E00
863.20	1.0432E00
863.37	1.0462E00
863.54	9.9959E-01
863.71	9.9999E-01
863.88	1.0185E00
864.05	1.0081E00
864.21	1.0331E00
864.38	9.7545E-01
864.55	9.6174E-01
864.72	1.0446E00
864.89	9.9788E-01
865.06	1.0292E00
865.23	9.7802E-01
865.40	9.4508E-01
865.57	1.0180E00
865.74	9.8632E-01
865.90	9.9600E-01
866.07	9.9454E-01
866.24	9.3747E-01
866.41	9.2336E-01
866.58	9.4368E-01
866.75	9.4849E-01
866.92	9.5144E-01
867.09	9.5271E-01
867.26	9.5607E-01
867.42	9.1695E-01
867.59	8.8780E-01
867.76	9.6268E-01
867.93	9.2769E-01
868.10	9.4360E-01
868.27	8.7696E-01
868.44	9.5066E-01
868.60	9.6651E-01
868.77	9.5629E-01
868.94	9.3689E-01
869.11	9.3119E-01
869.28	9.6744E-01
869.45	8.8432E-01
869.62	9.5169E-01
869.78	9.2908E-01
869.95	8.9061E-01
870.12	9.1727E-01
870.29	9.4208E-01
870.46	9.5128E-01
870.63	9.1429E-01
870.80	8.7841E-01
870.96	9.1060E-01
871.13	9.0004E-01
871.30	9.4008E-01
871.47	9.4406E-01
871.64	9.3944E-01
871.81	8.3621E-01
871.97	9.5331E-01
872.14	8.6273E-01
872.31	8.4602E-01
872.48	8.8093E-01
872.65	9.2709E-01
872.81	8.8707E-01
872.98	9.4000E-01
873.15	9.1653E-01
873.32	9.1002E-01
873.49	8.7810E-01
873.66	9.0535E-01
873.82	8.7791E-01
873.99	8.5277E-01
874.16	8.9008E-01
874.33	8.6026E-01
874.50	8.9824E-01
874.66	8.6937E-01
874.83	8.7507E-01
875.00	8.6442E-01
875.17	7.9862E-01
875.34	8.8909E-01
875.50	8.4851E-01
875.67	8.3408E-01
875.84	8.4923E-01
876.01	8.2817E-01
876.17	8.0433E-01
876.34	8.0497E-01
876.51	8.8269E-01
876.68	8.5956E-01
876.85	8.4981E-01
877.01	8.7379E-01
877.18	8.2347E-01
877.35	8.4133E-01
877.52	8.3688E-01
877.68	8.5992E-01
877.85	8.2404E-01
878.02	8.4292E-01
878.19	8.2334E-01
878.35	8.4282E-01
878.52	8.3561E-01
878.69	8.4593E-01
878.86	7.9694E-01
879.02	8.1667E-01
879.19	7.7829E-01
879.36	7.9872E-01
879.53	7.4662E-01
879.69	7.9939E-01
879.86	8.4801E-01
880.03	8.3831E-01
880.20	7.9148E-01
880.36	8.4770E-01
880.53	7.7516E-01
880.70	8.4458E-01
880.87	7.9637E-01
881.03	7.9149E-01
881.20	7.3083E-01
881.37	7.7833E-01
881.54	7.8954E-01
881.70	8.2098E-01
881.87	7.5929E-01
882.04	7.6431E-01
882.20	7.7018E-01
882.37	7.2238E-01
882.54	7.9042E-01
882.71	7.8321E-01
882.87	8.2137E-01
883.04	7.6381E-01
883.21	7.5803E-01
883.37	7.4105E-01
883.54	7.6151E-01
883.71	7.4427E-01
883.87	7.1807E-01
884.04	7.9336E-01
884.21	7.4083E-01
884.38	7.1699E-01
884.54	8.0117E-01
884.71	8.0521E-01
884.88	7.4453E-01
885.04	7.6587E-01
885.21	7.2976E-01
885.38	7.3218E-01
885.54	8.1571E-01
885.71	7.2629E-01
885.88	7.5394E-01
886.04	7.3978E-01
886.21	7.3847E-01
886.38	7.1024E-01
886.54	7.1843E-01
886.71	6.8824E-01
886.88	7.6241E-01
887.04	6.6812E-01
887.21	7.0109E-01
887.38	7.4308E-01
887.54	6.7537E-01
887.71	7.3817E-01
887.88	6.3913E-01
888.04	6.7092E-01
888.21	7.4127E-01
888.38	7.2061E-01
888.54	7.0441E-01
888.71	7.3301E-01
888.87	6.1881E-01
889.04	6.1881E-01
>>>>>End Processed Spectral Data<<<<<
