SpectraSuite Data File
++++++++++++++++++++++++++++++++++++
Date: Wed Jul 25 11:21:14 HST 2007
User: guest
Dark Spectrum Present: Yes
Reference Spectrum Present: No
Number of Sampled Component Spectra: 1
Spectrometers: USB4E01242
Integration Time (usec): 10000 (USB4E01242)
Spectra Averaged: 1 (USB4E01242)
Boxcar Smoothing: 10 (USB4E01242)
Correct for Electrical Dark: No (USB4E01242)
Strobe/Lamp Enabled: No (USB4E01242)
Correct for Detector Non-linearity: No (USB4E01242)
Correct for Stray Light: No (USB4E01242)
Number of Pixels in Processed Spectrum: 3648
>>>>>Begin Processed Spectral Data<<<<<
177.33	0.0000E00
177.55	0.0000E00
177.77	0.0000E00
177.99	0.0000E00
178.21	0.0000E00
178.43	-0.0000E00
178.64	-0.0000E00
178.86	-0.0000E00
179.08	-0.0000E00
179.30	-0.0000E00
179.52	-0.0000E00
179.74	-0.0000E00
179.96	-0.0000E00
180.18	-0.0000E00
180.39	-0.0000E00
180.61	-0.0000E00
180.83	-0.0000E00
181.05	-0.0000E00
181.27	-0.0000E00
181.49	-0.0000E00
181.71	-0.0000E00
181.92	-0.0000E00
182.14	-0.0000E00
182.36	-0.0000E00
182.58	-0.0000E00
182.80	-0.0000E00
183.02	0.0000E00
183.23	-0.0000E00
183.45	-0.0000E00
183.67	-0.0000E00
183.89	-0.0000E00
184.11	0.0000E00
184.33	-0.0000E00
184.55	-0.0000E00
184.76	-0.0000E00
184.98	-0.0000E00
185.20	-0.0000E00
185.42	-0.0000E00
185.64	-0.0000E00
185.86	0.0000E00
186.07	-0.0000E00
186.29	-0.0000E00
186.51	-0.0000E00
186.73	-0.0000E00
186.95	-0.0000E00
187.17	-0.0000E00
187.38	-0.0000E00
187.60	-0.0000E00
187.82	-0.0000E00
188.04	-0.0000E00
188.26	-0.0000E00
188.47	-0.0000E00
188.69	-0.0000E00
188.91	-0.0000E00
189.13	-0.0000E00
189.35	-0.0000E00
189.57	-0.0000E00
189.78	0.0000E00
190.00	-0.0000E00
190.22	-0.0000E00
190.44	-0.0000E00
190.66	-0.0000E00
190.87	-0.0000E00
191.09	-0.0000E00
191.31	-0.0000E00
191.53	-0.0000E00
191.75	-0.0000E00
191.97	-0.0000E00
192.18	0.0000E00
192.40	0.0000E00
192.62	-0.0000E00
192.84	-0.0000E00
193.06	-0.0000E00
193.27	-0.0000E00
193.49	-0.0000E00
193.71	-0.0000E00
193.93	-0.0000E00
194.15	-0.0000E00
194.36	0.0000E00
194.58	-0.0000E00
194.80	-0.0000E00
195.02	-0.0000E00
195.23	-0.0000E00
195.45	-0.0000E00
195.67	-0.0000E00
195.89	-0.0000E00
196.11	-0.0000E00
196.32	-0.0000E00
196.54	-0.0000E00
196.76	-0.0000E00
196.98	-0.0000E00
197.20	-0.0000E00
197.41	-0.0000E00
197.63	-0.0000E00
197.85	-0.0000E00
198.07	-0.0000E00
198.28	-0.0000E00
198.50	-0.0000E00
198.72	-0.0000E00
198.94	-0.0000E00
199.16	-0.0000E00
199.37	-0.0000E00
199.59	-0.0000E00
199.81	-0.0000E00
200.03	-0.0000E00
200.24	-0.0000E00
200.46	-0.0000E00
200.68	-0.0000E00
200.90	-0.0000E00
201.11	-0.0000E00
201.33	-0.0000E00
201.55	-0.0000E00
201.77	-0.0000E00
201.98	-0.0000E00
202.20	-0.0000E00
202.42	-0.0000E00
202.64	-0.0000E00
202.86	-0.0000E00
203.07	-0.0000E00
203.29	-0.0000E00
203.51	-0.0000E00
203.73	-0.0000E00
203.94	-0.0000E00
204.16	-0.0000E00
204.38	0.0000E00
204.60	-0.0000E00
204.81	0.0000E00
205.03	-0.0000E00
205.25	-0.0000E00
205.46	0.0000E00
205.68	-0.0000E00
205.90	-0.0000E00
206.12	-0.0000E00
206.33	-0.0000E00
206.55	0.0000E00
206.77	-0.0000E00
206.99	-0.0000E00
207.20	-0.0000E00
207.42	-0.0000E00
207.64	-0.0000E00
207.86	-0.0000E00
208.07	-0.0000E00
208.29	-0.0000E00
208.51	-0.0000E00
208.72	-0.0000E00
208.94	0.0000E00
209.16	0.0000E00
209.38	-0.0000E00
209.59	-0.0000E00
209.81	-0.0000E00
210.03	-0.0000E00
210.25	-0.0000E00
210.46	-0.0000E00
210.68	-0.0000E00
210.90	-0.0000E00
211.11	-0.0000E00
211.33	-0.0000E00
211.55	-0.0000E00
211.77	-0.0000E00
211.98	0.0000E00
212.20	-0.0000E00
212.42	-0.0000E00
212.63	-0.0000E00
212.85	-0.0000E00
213.07	-0.0000E00
213.29	0.0000E00
213.50	-0.0000E00
213.72	-0.0000E00
213.94	-0.0000E00
214.15	-0.0000E00
214.37	-0.0000E00
214.59	-0.0000E00
214.80	-0.0000E00
215.02	-0.0000E00
215.24	-0.0000E00
215.45	-0.0000E00
215.67	-0.0000E00
215.89	0.0000E00
216.11	-0.0000E00
216.32	-0.0000E00
216.54	-0.0000E00
216.76	-0.0000E00
216.97	0.0000E00
217.19	-0.0000E00
217.41	-0.0000E00
217.62	0.0000E00
217.84	0.0000E00
218.06	-0.0000E00
218.27	-0.0000E00
218.49	0.0000E00
218.71	-0.0000E00
218.92	-0.0000E00
219.14	-0.0000E00
219.36	-0.0000E00
219.57	-0.0000E00
219.79	-0.0000E00
220.01	-0.0000E00
220.22	-0.0000E00
220.44	-0.0000E00
220.66	-0.0000E00
220.88	-0.0000E00
221.09	0.0000E00
221.31	-0.0000E00
221.53	-0.0000E00
221.74	0.0000E00
221.96	-0.0000E00
222.17	-0.0000E00
222.39	-0.0000E00
222.61	-0.0000E00
222.82	0.0000E00
223.04	0.0000E00
223.26	-0.0000E00
223.47	-0.0000E00
223.69	-0.0000E00
223.91	-0.0000E00
224.12	0.0000E00
224.34	-0.0000E00
224.56	-0.0000E00
224.77	-0.0000E00
224.99	-0.0000E00
225.21	-0.0000E00
225.42	0.0000E00
225.64	0.0000E00
225.86	-0.0000E00
226.07	-0.0000E00
226.29	-0.0000E00
226.50	0.0000E00
226.72	-0.0000E00
226.94	-0.0000E00
227.15	-0.0000E00
227.37	0.0000E00
227.59	-0.0000E00
227.80	-0.0000E00
228.02	-0.0000E00
228.24	-0.0000E00
228.45	-0.0000E00
228.67	-0.0000E00
228.88	0.0000E00
229.10	-0.0000E00
229.32	-0.0000E00
229.53	0.0000E00
229.75	-0.0000E00
229.97	0.0000E00
230.18	0.0000E00
230.40	-0.0000E00
230.61	-0.0000E00
230.83	-0.0000E00
231.05	-0.0000E00
231.26	0.0000E00
231.48	-0.0000E00
231.70	-0.0000E00
231.91	-0.0000E00
232.13	-0.0000E00
232.34	-0.0000E00
232.56	0.0000E00
232.78	-0.0000E00
232.99	0.0000E00
233.21	-0.0000E00
233.42	-0.0000E00
233.64	-0.0000E00
233.86	-0.0000E00
234.07	-0.0000E00
234.29	0.0000E00
234.50	-0.0000E00
234.72	-0.0000E00
234.94	-0.0000E00
235.15	-0.0000E00
235.37	-0.0000E00
235.58	-0.0000E00
235.80	-0.0000E00
236.02	0.0000E00
236.23	-0.0000E00
236.45	-0.0000E00
236.66	-0.0000E00
236.88	0.0000E00
237.10	0.0000E00
237.31	-0.0000E00
237.53	-0.0000E00
237.74	-0.0000E00
237.96	-0.0000E00
238.17	-0.0000E00
238.39	-0.0000E00
238.61	-0.0000E00
238.82	-0.0000E00
239.04	-0.0000E00
239.25	-0.0000E00
239.47	-0.0000E00
239.69	-0.0000E00
239.90	-0.0000E00
240.12	0.0000E00
240.33	0.0000E00
240.55	-0.0000E00
240.76	0.0000E00
240.98	-0.0000E00
241.20	-0.0000E00
241.41	-0.0000E00
241.63	-0.0000E00
241.84	-0.0000E00
242.06	-0.0000E00
242.27	-0.0000E00
242.49	-0.0000E00
242.70	-0.0000E00
242.92	0.0000E00
243.14	0.0000E00
243.35	-0.0000E00
243.57	0.0000E00
243.78	-0.0000E00
244.00	0.0000E00
244.21	-0.0000E00
244.43	0.0000E00
244.64	-0.0000E00
244.86	-0.0000E00
245.08	-0.0000E00
245.29	0.0000E00
245.51	-0.0000E00
245.72	-0.0000E00
245.94	0.0000E00
246.15	-0.0000E00
246.37	-0.0000E00
246.58	-0.0000E00
246.80	-0.0000E00
247.01	0.0000E00
247.23	-0.0000E00
247.45	0.0000E00
247.66	0.0000E00
247.88	-0.0000E00
248.09	-0.0000E00
248.31	-0.0000E00
248.52	-0.0000E00
248.74	-0.0000E00
248.95	0.0000E00
249.17	-0.0000E00
249.38	-0.0000E00
249.60	-0.0000E00
249.81	0.0000E00
250.03	0.0000E00
250.24	-0.0000E00
250.46	0.0000E00
250.67	-0.0000E00
250.89	-0.0000E00
251.10	-0.0000E00
251.32	-0.0000E00
251.53	-0.0000E00
251.75	-0.0000E00
251.97	-0.0000E00
252.18	-0.0000E00
252.40	-0.0000E00
252.61	0.0000E00
252.83	-0.0000E00
253.04	-0.0000E00
253.26	-0.0000E00
253.47	-0.0000E00
253.69	-0.0000E00
253.90	-0.0000E00
254.12	-0.0000E00
254.33	-0.0000E00
254.55	-0.0000E00
254.76	-0.0000E00
254.98	0.0000E00
255.19	-0.0000E00
255.41	-0.0000E00
255.62	-0.0000E00
255.84	-0.0000E00
256.05	-0.0000E00
256.27	-0.0000E00
256.48	-0.0000E00
256.70	-0.0000E00
256.91	-0.0000E00
257.13	-0.0000E00
257.34	-0.0000E00
257.55	0.0000E00
257.77	-0.0000E00
257.98	-0.0000E00
258.20	-0.0000E00
258.41	0.0000E00
258.63	-0.0000E00
258.84	-0.0000E00
259.06	-0.0000E00
259.27	-0.0000E00
259.49	0.0000E00
259.70	0.0000E00
259.92	-0.0000E00
260.13	0.0000E00
260.35	-0.0000E00
260.56	-0.0000E00
260.78	-0.0000E00
260.99	-0.0000E00
261.21	-0.0000E00
261.42	-0.0000E00
261.63	-0.0000E00
261.85	-0.0000E00
262.06	-0.0000E00
262.28	-0.0000E00
262.49	-0.0000E00
262.71	-0.0000E00
262.92	-0.0000E00
263.14	-0.0000E00
263.35	-0.0000E00
263.57	-0.0000E00
263.78	0.0000E00
264.00	0.0000E00
264.21	-0.0000E00
264.42	-0.0000E00
264.64	-0.0000E00
264.85	-0.0000E00
265.07	-0.0000E00
265.28	-0.0000E00
265.50	-0.0000E00
265.71	-0.0000E00
265.93	-0.0000E00
266.14	-0.0000E00
266.35	0.0000E00
266.57	-0.0000E00
266.78	0.0000E00
267.00	0.0000E00
267.21	0.0000E00
267.43	0.0000E00
267.64	-0.0000E00
267.85	-0.0000E00
268.07	0.0000E00
268.28	0.0000E00
268.50	-0.0000E00
268.71	0.0000E00
268.93	-0.0000E00
269.14	0.0000E00
269.35	-0.0000E00
269.57	0.0000E00
269.78	-0.0000E00
270.00	-0.0000E00
270.21	0.0000E00
270.43	-0.0000E00
270.64	0.0000E00
270.85	-0.0000E00
271.07	-0.0000E00
271.28	-0.0000E00
271.50	-0.0000E00
271.71	-0.0000E00
271.92	-0.0000E00
272.14	-0.0000E00
272.35	0.0000E00
272.57	-0.0000E00
272.78	-0.0000E00
272.99	0.0000E00
273.21	-0.0000E00
273.42	-0.0000E00
273.64	-0.0000E00
273.85	0.0000E00
274.07	0.0000E00
274.28	-0.0000E00
274.49	0.0000E00
274.71	-0.0000E00
274.92	-0.0000E00
275.13	-0.0000E00
275.35	-0.0000E00
275.56	-0.0000E00
275.78	0.0000E00
275.99	-0.0000E00
276.20	-0.0000E00
276.42	-0.0000E00
276.63	-0.0000E00
276.85	-0.0000E00
277.06	-0.0000E00
277.27	-0.0000E00
277.49	0.0000E00
277.70	-0.0000E00
277.92	-0.0000E00
278.13	0.0000E00
278.34	0.0000E00
278.56	0.0000E00
278.77	0.0000E00
278.98	-0.0000E00
279.20	-0.0000E00
279.41	-0.0000E00
279.63	0.0000E00
279.84	-0.0000E00
280.05	-0.0000E00
280.27	-0.0000E00
280.48	0.0000E00
280.69	-0.0000E00
280.91	-0.0000E00
281.12	-0.0000E00
281.33	-0.0000E00
281.55	-0.0000E00
281.76	0.0000E00
281.98	0.0000E00
282.19	-0.0000E00
282.40	0.0000E00
282.62	0.0000E00
282.83	-0.0000E00
283.04	-0.0000E00
283.26	0.0000E00
283.47	-0.0000E00
283.68	-0.0000E00
283.90	-0.0000E00
284.11	0.0000E00
284.32	-0.0000E00
284.54	-0.0000E00
284.75	-0.0000E00
284.96	0.0000E00
285.18	-0.0000E00
285.39	-0.0000E00
285.60	-0.0000E00
285.82	-0.0000E00
286.03	-0.0000E00
286.24	-0.0000E00
286.46	0.0000E00
286.67	0.0000E00
286.88	0.0000E00
287.10	0.0000E00
287.31	-0.0000E00
287.52	0.0000E00
287.74	-0.0000E00
287.95	0.0000E00
288.16	0.0000E00
288.38	0.0000E00
288.59	-0.0000E00
288.80	-0.0000E00
289.02	-0.0000E00
289.23	-0.0000E00
289.44	0.0000E00
289.66	0.0000E00
289.87	0.0000E00
290.08	0.0000E00
290.30	-0.0000E00
290.51	-0.0000E00
290.72	-0.0000E00
290.94	0.0000E00
291.15	-0.0000E00
291.36	0.0000E00
291.57	0.0000E00
291.79	-0.0000E00
292.00	-0.0000E00
292.21	-0.0000E00
292.43	-0.0000E00
292.64	-0.0000E00
292.85	0.0000E00
293.07	0.0000E00
293.28	0.0000E00
293.49	-0.0000E00
293.70	0.0000E00
293.92	0.0000E00
294.13	-0.0000E00
294.34	0.0000E00
294.56	-0.0000E00
294.77	0.0000E00
294.98	-0.0000E00
295.20	-0.0000E00
295.41	-0.0000E00
295.62	-0.0000E00
295.83	-0.0000E00
296.05	0.0000E00
296.26	-0.0000E00
296.47	0.0000E00
296.69	-0.0000E00
296.90	0.0000E00
297.11	0.0000E00
297.32	-0.0000E00
297.54	0.0000E00
297.75	-0.0000E00
297.96	0.0000E00
298.17	0.0000E00
298.39	0.0000E00
298.60	0.0000E00
298.81	0.0000E00
299.03	0.0000E00
299.24	0.0000E00
299.45	0.0000E00
299.66	0.0000E00
299.88	0.0000E00
300.09	1.3651E-01
300.30	9.9655E-02
300.51	2.0913E-01
300.73	1.1973E-01
300.94	1.5368E-01
301.15	2.0520E-01
301.36	1.2713E-01
301.58	1.7710E-01
301.79	3.4196E-01
302.00	2.0138E-01
302.21	1.8284E-01
302.43	2.7763E-01
302.64	1.9530E-01
302.85	2.9132E-01
303.06	1.8929E-01
303.28	2.8786E-01
303.49	2.1897E-01
303.70	3.5174E-01
303.91	2.5400E-01
304.13	2.3172E-01
304.34	2.8215E-01
304.55	3.7203E-01
304.76	2.2150E-01
304.98	2.6153E-01
305.19	3.5880E-01
305.40	2.5099E-01
305.61	3.4554E-01
305.82	2.9179E-01
306.04	3.7270E-01
306.25	2.6690E-01
306.46	4.2194E-01
306.67	3.1497E-01
306.89	3.4237E-01
307.10	4.1644E-01
307.31	4.0698E-01
307.52	3.7540E-01
307.74	4.6173E-01
307.95	4.6178E-01
308.16	3.0093E-01
308.37	4.1670E-01
308.58	3.9962E-01
308.80	4.8079E-01
309.01	4.6385E-01
309.22	3.5430E-01
309.43	4.1005E-01
309.64	4.9732E-01
309.86	5.6695E-01
310.07	4.8032E-01
310.28	5.1518E-01
310.49	5.3572E-01
310.70	4.5170E-01
310.92	5.5132E-01
311.13	5.0906E-01
311.34	5.2439E-01
311.55	5.3872E-01
311.76	5.3056E-01
311.98	6.6776E-01
312.19	5.4899E-01
312.40	5.0450E-01
312.61	5.4449E-01
312.82	6.0793E-01
313.04	5.3526E-01
313.25	6.2835E-01
313.46	5.5370E-01
313.67	5.5838E-01
313.88	5.9317E-01
314.10	5.6406E-01
314.31	5.6603E-01
314.52	5.7665E-01
314.73	6.0797E-01
314.94	6.8360E-01
315.16	6.9163E-01
315.37	7.6499E-01
315.58	6.0214E-01
315.79	6.8397E-01
316.00	7.1026E-01
316.21	7.5081E-01
316.43	5.7627E-01
316.64	6.2717E-01
316.85	6.0966E-01
317.06	6.9191E-01
317.27	7.4271E-01
317.48	6.4806E-01
317.70	6.7876E-01
317.91	6.6713E-01
318.12	7.5014E-01
318.33	6.2765E-01
318.54	6.6640E-01
318.75	6.8907E-01
318.97	7.7015E-01
319.18	6.9318E-01
319.39	6.6499E-01
319.60	6.8684E-01
319.81	7.5166E-01
320.02	6.8678E-01
320.24	6.9973E-01
320.45	7.5022E-01
320.66	6.5369E-01
320.87	7.3478E-01
321.08	8.1809E-01
321.29	7.9884E-01
321.50	7.2612E-01
321.72	6.8595E-01
321.93	8.2076E-01
322.14	7.1835E-01
322.35	8.2807E-01
322.56	8.3942E-01
322.77	8.7671E-01
322.98	7.5230E-01
323.20	8.7174E-01
323.41	7.2685E-01
323.62	7.2396E-01
323.83	8.2108E-01
324.04	7.3958E-01
324.25	7.3637E-01
324.46	7.8753E-01
324.67	8.1267E-01
324.89	7.7467E-01
325.10	7.5883E-01
325.31	8.8938E-01
325.52	8.3260E-01
325.73	7.6603E-01
325.94	8.0811E-01
326.15	7.4298E-01
326.36	9.2319E-01
326.58	9.7237E-01
326.79	9.4146E-01
327.00	7.4643E-01
327.21	9.4610E-01
327.42	9.5429E-01
327.63	9.5464E-01
327.84	9.1692E-01
328.05	9.8448E-01
328.26	7.9806E-01
328.48	9.3318E-01
328.69	9.9540E-01
328.90	9.4492E-01
329.11	9.5121E-01
329.32	9.6396E-01
329.53	9.0787E-01
329.74	9.6089E-01
329.95	1.0396E00
330.16	1.0184E00
330.37	9.6057E-01
330.59	1.1536E00
330.80	1.0442E00
331.01	1.0551E00
331.22	1.0502E00
331.43	9.5517E-01
331.64	9.4986E-01
331.85	1.1190E00
332.06	1.0800E00
332.27	9.6538E-01
332.48	1.1108E00
332.69	1.1508E00
332.91	1.0938E00
333.12	1.0764E00
333.33	1.2005E00
333.54	9.7910E-01
333.75	9.3874E-01
333.96	9.9170E-01
334.17	9.5862E-01
334.38	9.7948E-01
334.59	1.0390E00
334.80	1.0532E00
335.01	1.0259E00
335.22	9.7030E-01
335.43	9.5168E-01
335.64	9.8160E-01
335.86	1.0219E00
336.07	1.0235E00
336.28	8.9448E-01
336.49	1.0436E00
336.70	9.3652E-01
336.91	9.2844E-01
337.12	9.0811E-01
337.33	1.0587E00
337.54	9.6214E-01
337.75	9.4582E-01
337.96	1.0636E00
338.17	1.0609E00
338.38	9.4347E-01
338.59	1.0964E00
338.80	9.2692E-01
339.01	1.1101E00
339.22	1.0942E00
339.43	1.1011E00
339.65	1.0370E00
339.86	9.9009E-01
340.07	9.7842E-01
340.28	1.0597E00
340.49	1.0529E00
340.70	1.0732E00
340.91	9.7408E-01
341.12	9.3501E-01
341.33	1.0539E00
341.54	1.0945E00
341.75	9.9956E-01
341.96	1.0256E00
342.17	1.0588E00
342.38	9.9509E-01
342.59	1.0314E00
342.80	9.5090E-01
343.01	1.0113E00
343.22	1.0010E00
343.43	9.7157E-01
343.64	9.3613E-01
343.85	1.0191E00
344.06	8.8696E-01
344.27	9.9010E-01
344.48	1.0746E00
344.69	9.9418E-01
344.90	1.0125E00
345.11	9.7682E-01
345.32	9.5860E-01
345.53	8.7408E-01
345.74	1.0296E00
345.95	9.0394E-01
346.16	9.9033E-01
346.37	9.8832E-01
346.58	9.8403E-01
346.79	9.1463E-01
347.00	1.0155E00
347.21	1.0275E00
347.42	9.3894E-01
347.63	8.8522E-01
347.84	9.7553E-01
348.05	1.0185E00
348.26	9.5963E-01
348.47	1.0016E00
348.68	9.9445E-01
348.89	8.8874E-01
349.10	9.8355E-01
349.31	1.0203E00
349.52	9.5746E-01
349.73	9.8453E-01
349.94	9.9639E-01
350.15	9.3190E-01
350.36	1.0832E00
350.57	1.0507E00
350.78	1.0693E00
350.99	1.0701E00
351.20	1.0122E00
351.41	1.0772E00
351.62	1.0354E00
351.83	1.0548E00
352.04	1.0528E00
352.25	1.1180E00
352.46	1.0820E00
352.67	1.0477E00
352.88	1.1835E00
353.09	9.6078E-01
353.30	1.0670E00
353.51	1.0819E00
353.72	1.1640E00
353.93	1.0697E00
354.14	1.0294E00
354.35	1.1637E00
354.56	1.0755E00
354.77	1.2039E00
354.98	1.0003E00
355.19	1.0592E00
355.39	1.0819E00
355.60	1.0564E00
355.81	1.0977E00
356.02	1.1249E00
356.23	9.9558E-01
356.44	9.6303E-01
356.65	1.0998E00
356.86	1.0276E00
357.07	1.0160E00
357.28	1.0992E00
357.49	1.0673E00
357.70	1.1114E00
357.91	1.0030E00
358.12	1.0066E00
358.33	1.0999E00
358.54	1.1350E00
358.75	1.0939E00
358.96	1.1628E00
359.16	1.0333E00
359.37	1.2152E00
359.58	1.1701E00
359.79	1.1433E00
360.00	1.1528E00
360.21	1.1846E00
360.42	1.1645E00
360.63	1.3719E00
360.84	1.2816E00
361.05	1.1331E00
361.26	1.2391E00
361.47	1.3295E00
361.68	1.2430E00
361.88	1.2982E00
362.09	1.2433E00
362.30	1.3286E00
362.51	1.3012E00
362.72	1.4288E00
362.93	1.3452E00
363.14	1.3693E00
363.35	1.3443E00
363.56	1.3419E00
363.77	1.4589E00
363.98	1.4344E00
364.18	1.5067E00
364.39	1.4898E00
364.60	1.4420E00
364.81	1.4755E00
365.02	1.5038E00
365.23	1.5321E00
365.44	1.5410E00
365.65	1.5363E00
365.86	1.4443E00
366.07	1.6260E00
366.27	1.5640E00
366.48	1.6055E00
366.69	1.5671E00
366.90	1.6433E00
367.11	1.6114E00
367.32	1.6282E00
367.53	1.5686E00
367.74	1.5373E00
367.95	1.5475E00
368.15	1.5968E00
368.36	1.6490E00
368.57	1.5182E00
368.78	1.7130E00
368.99	1.5905E00
369.20	1.5860E00
369.41	1.6555E00
369.62	1.6130E00
369.82	1.6912E00
370.03	1.6022E00
370.24	1.6241E00
370.45	1.5742E00
370.66	1.5113E00
370.87	1.4996E00
371.08	1.5207E00
371.28	1.5152E00
371.49	1.5149E00
371.70	1.5010E00
371.91	1.5040E00
372.12	1.4402E00
372.33	1.4353E00
372.54	1.4823E00
372.74	1.4593E00
372.95	1.3478E00
373.16	1.4891E00
373.37	1.5109E00
373.58	1.3572E00
373.79	1.4783E00
374.00	1.4388E00
374.20	1.5601E00
374.41	1.5425E00
374.62	1.4909E00
374.83	1.5014E00
375.04	1.5383E00
375.25	1.5633E00
375.45	1.4165E00
375.66	1.5938E00
375.87	1.5890E00
376.08	1.6355E00
376.29	1.6283E00
376.50	1.6206E00
376.70	1.6039E00
376.91	1.6624E00
377.12	1.6822E00
377.33	1.5702E00
377.54	1.5977E00
377.75	1.6902E00
377.95	1.6260E00
378.16	1.6622E00
378.37	1.5947E00
378.58	1.6841E00
378.79	1.5404E00
379.00	1.6803E00
379.20	1.5699E00
379.41	1.6026E00
379.62	1.6207E00
379.83	1.5496E00
380.04	1.5577E00
380.24	1.4974E00
380.45	1.4212E00
380.66	1.4317E00
380.87	1.4678E00
381.08	1.4721E00
381.28	1.3784E00
381.49	1.4382E00
381.70	1.3522E00
381.91	1.3731E00
382.12	1.4113E00
382.32	1.3394E00
382.53	1.3873E00
382.74	1.3083E00
382.95	1.3388E00
383.16	1.3695E00
383.36	1.2496E00
383.57	1.3739E00
383.78	1.4129E00
383.99	1.3373E00
384.20	1.3777E00
384.40	1.3973E00
384.61	1.4713E00
384.82	1.4970E00
385.03	1.4524E00
385.23	1.4884E00
385.44	1.5004E00
385.65	1.5511E00
385.86	1.4681E00
386.07	1.6564E00
386.27	1.4566E00
386.48	1.5509E00
386.69	1.6217E00
386.90	1.4576E00
387.10	1.5705E00
387.31	1.6581E00
387.52	1.6026E00
387.73	1.6636E00
387.94	1.7203E00
388.14	1.6060E00
388.35	1.6694E00
388.56	1.8403E00
388.77	1.7698E00
388.97	1.7916E00
389.18	1.8581E00
389.39	1.7639E00
389.60	1.7835E00
389.80	1.8561E00
390.01	1.8216E00
390.22	1.8094E00
390.43	1.6929E00
390.63	1.7270E00
390.84	1.7180E00
391.05	1.8308E00
391.26	1.7253E00
391.46	1.7050E00
391.67	1.6993E00
391.88	1.6087E00
392.09	1.6077E00
392.29	1.7171E00
392.50	1.6355E00
392.71	1.6684E00
392.92	1.6811E00
393.12	1.6568E00
393.33	1.6900E00
393.54	1.6119E00
393.74	1.5651E00
393.95	1.6038E00
394.16	1.6926E00
394.37	1.6371E00
394.57	1.6571E00
394.78	1.7311E00
394.99	1.7041E00
395.19	1.7093E00
395.40	1.7225E00
395.61	1.7334E00
395.82	1.8331E00
396.02	1.7952E00
396.23	1.8739E00
396.44	1.9083E00
396.65	1.8832E00
396.85	1.9879E00
397.06	1.9791E00
397.27	2.0438E00
397.47	2.1357E00
397.68	2.1292E00
397.89	2.1367E00
398.09	2.1508E00
398.30	2.2588E00
398.51	2.2326E00
398.72	2.3403E00
398.92	2.4379E00
399.13	2.4730E00
399.34	2.5564E00
399.54	2.5948E00
399.75	2.5763E00
399.96	2.5367E00
400.16	2.5560E00
400.37	2.6540E00
400.58	2.6561E00
400.78	2.6915E00
400.99	2.6753E00
401.20	2.7620E00
401.41	2.7428E00
401.61	2.6805E00
401.82	2.7419E00
402.03	2.6894E00
402.23	2.6845E00
402.44	2.7703E00
402.65	2.7221E00
402.85	2.7434E00
403.06	2.7355E00
403.27	2.7608E00
403.47	2.7401E00
403.68	2.6808E00
403.89	2.7469E00
404.09	2.6971E00
404.30	2.6444E00
404.51	2.7538E00
404.71	2.7398E00
404.92	2.8012E00
405.13	2.6363E00
405.33	2.6977E00
405.54	2.7161E00
405.75	2.7445E00
405.95	2.7344E00
406.16	2.6334E00
406.37	2.7338E00
406.57	2.7504E00
406.78	2.7807E00
406.99	2.7593E00
407.19	2.7945E00
407.40	2.8470E00
407.60	2.8286E00
407.81	2.8226E00
408.02	2.7645E00
408.22	2.7881E00
408.43	2.8733E00
408.64	2.8490E00
408.84	2.8456E00
409.05	2.7830E00
409.26	2.9072E00
409.46	2.9355E00
409.67	2.8564E00
409.87	2.9062E00
410.08	2.8934E00
410.29	2.9800E00
410.49	2.8464E00
410.70	2.9601E00
410.91	2.9334E00
411.11	3.0016E00
411.32	2.9811E00
411.52	2.8989E00
411.73	3.0258E00
411.94	3.0169E00
412.14	3.0487E00
412.35	2.9968E00
412.56	3.0685E00
412.76	3.0645E00
412.97	3.0138E00
413.17	3.0538E00
413.38	3.1010E00
413.59	3.0033E00
413.79	3.0415E00
414.00	3.0802E00
414.20	3.1023E00
414.41	3.0068E00
414.62	3.0882E00
414.82	3.0404E00
415.03	2.9842E00
415.23	3.0910E00
415.44	3.0134E00
415.65	3.0864E00
415.85	3.0174E00
416.06	3.0937E00
416.26	3.0594E00
416.47	3.0757E00
416.68	3.1090E00
416.88	3.1342E00
417.09	2.9515E00
417.29	3.0527E00
417.50	3.0875E00
417.71	3.0611E00
417.91	3.0505E00
418.12	3.0375E00
418.32	3.1112E00
418.53	3.1108E00
418.73	3.0431E00
418.94	3.0508E00
419.15	3.0337E00
419.35	3.1427E00
419.56	3.0830E00
419.76	2.9946E00
419.97	3.1334E00
420.17	3.0859E00
420.38	2.9748E00
420.59	3.1288E00
420.79	3.1328E00
421.00	3.0684E00
421.20	2.9787E00
421.41	3.0567E00
421.61	3.0349E00
421.82	3.0835E00
422.02	3.0710E00
422.23	2.9447E00
422.44	3.1336E00
422.64	3.0370E00
422.85	3.0549E00
423.05	3.0679E00
423.26	3.0819E00
423.46	3.0692E00
423.67	3.0431E00
423.87	3.0484E00
424.08	3.0279E00
424.29	3.0288E00
424.49	3.1059E00
424.70	2.9907E00
424.90	3.0874E00
425.11	3.0975E00
425.31	3.0796E00
425.52	3.0975E00
425.72	3.0255E00
425.93	3.0399E00
426.13	2.9842E00
426.34	2.9783E00
426.54	2.9669E00
426.75	2.9612E00
426.95	2.9438E00
427.16	2.9309E00
427.36	2.9043E00
427.57	2.8448E00
427.78	2.8176E00
427.98	2.8049E00
428.19	2.8193E00
428.39	2.7598E00
428.60	2.7562E00
428.80	2.7583E00
429.01	2.7980E00
429.21	2.6801E00
429.42	2.8305E00
429.62	2.8140E00
429.83	2.7740E00
430.03	2.7232E00
430.24	2.8286E00
430.44	2.7606E00
430.65	2.8387E00
430.85	2.8707E00
431.06	2.8303E00
431.26	2.9420E00
431.47	2.8588E00
431.67	3.0436E00
431.88	3.0073E00
432.08	3.0542E00
432.29	3.0819E00
432.49	3.0456E00
432.70	3.0617E00
432.90	3.1820E00
433.11	3.1846E00
433.31	3.0715E00
433.52	3.1742E00
433.72	3.1600E00
433.93	3.2004E00
434.13	3.2055E00
434.34	3.3070E00
434.54	3.2032E00
434.74	3.2472E00
434.95	3.2787E00
435.15	3.2513E00
435.36	3.2900E00
435.56	3.2301E00
435.77	3.3038E00
435.97	3.2239E00
436.18	3.4019E00
436.38	3.3107E00
436.59	3.2665E00
436.79	3.3347E00
437.00	3.3126E00
437.20	3.2812E00
437.41	3.2678E00
437.61	3.3009E00
437.81	3.2971E00
438.02	3.2998E00
438.22	3.3425E00
438.43	3.2699E00
438.63	3.4062E00
438.84	3.3263E00
439.04	3.3445E00
439.25	3.3786E00
439.45	3.3418E00
439.66	3.3655E00
439.86	3.4087E00
440.06	3.5286E00
440.27	3.4592E00
440.47	3.4378E00
440.68	3.5772E00
440.88	3.5484E00
441.09	3.6264E00
441.29	3.6356E00
441.49	3.6432E00
441.70	3.7189E00
441.90	3.6957E00
442.11	3.7375E00
442.31	3.7818E00
442.52	3.7244E00
442.72	3.7252E00
442.92	3.6795E00
443.13	3.7735E00
443.33	3.6642E00
443.54	3.7441E00
443.74	3.7304E00
443.95	3.7847E00
444.15	3.7411E00
444.35	3.7840E00
444.56	3.7311E00
444.76	3.6945E00
444.97	3.8432E00
445.17	3.7969E00
445.37	3.8742E00
445.58	3.7659E00
445.78	3.8012E00
445.99	3.7384E00
446.19	3.7527E00
446.39	3.7907E00
446.60	3.7638E00
446.80	3.7800E00
447.01	3.8846E00
447.21	3.9563E00
447.41	3.8654E00
447.62	3.9632E00
447.82	3.9383E00
448.03	3.9943E00
448.23	4.0085E00
448.43	4.0332E00
448.64	4.0669E00
448.84	4.0663E00
449.05	4.0350E00
449.25	4.0797E00
449.45	4.0271E00
449.66	4.0546E00
449.86	4.0721E00
450.07	4.0093E00
450.27	4.0672E00
450.47	4.0338E00
450.68	4.0600E00
450.88	4.0143E00
451.08	4.0456E00
451.29	4.0594E00
451.49	4.0505E00
451.70	4.0330E00
451.90	4.0493E00
452.10	4.0345E00
452.31	3.9579E00
452.51	4.0344E00
452.71	4.0256E00
452.92	4.0110E00
453.12	4.0674E00
453.32	4.0205E00
453.53	3.9328E00
453.73	3.9615E00
453.93	3.9760E00
454.14	4.0826E00
454.34	4.0759E00
454.55	4.1040E00
454.75	4.0922E00
454.95	4.0388E00
455.16	4.1519E00
455.36	4.0613E00
455.56	4.1683E00
455.77	4.1428E00
455.97	4.1161E00
456.17	4.0912E00
456.38	4.1295E00
456.58	4.1767E00
456.78	4.1028E00
456.99	4.0355E00
457.19	4.0976E00
457.39	4.0914E00
457.60	4.1284E00
457.80	4.1153E00
458.00	4.0955E00
458.21	4.1693E00
458.41	4.1580E00
458.61	4.1089E00
458.82	4.1083E00
459.02	4.0760E00
459.22	4.2092E00
459.43	4.1937E00
459.63	4.1606E00
459.83	4.1263E00
460.03	4.1652E00
460.24	4.2056E00
460.44	4.1491E00
460.64	4.1178E00
460.85	4.2047E00
461.05	4.1988E00
461.25	4.2086E00
461.46	4.1779E00
461.66	4.1454E00
461.86	4.2017E00
462.07	4.2344E00
462.27	4.2071E00
462.47	4.2484E00
462.67	4.1851E00
462.88	4.2162E00
463.08	4.1212E00
463.28	4.1791E00
463.49	4.2205E00
463.69	4.1708E00
463.89	4.1899E00
464.09	4.1920E00
464.30	4.1421E00
464.50	4.1962E00
464.70	4.2003E00
464.91	4.0854E00
465.11	4.0896E00
465.31	4.0959E00
465.51	4.1553E00
465.72	4.1266E00
465.92	4.1237E00
466.12	4.0823E00
466.33	4.1334E00
466.53	4.1066E00
466.73	4.0802E00
466.93	4.1425E00
467.14	4.0790E00
467.34	4.2059E00
467.54	4.1364E00
467.74	4.1404E00
467.95	4.1293E00
468.15	4.0994E00
468.35	4.1480E00
468.55	4.1754E00
468.76	4.1758E00
468.96	4.0739E00
469.16	4.1557E00
469.37	4.1486E00
469.57	4.1601E00
469.77	4.1173E00
469.97	4.1563E00
470.18	4.1838E00
470.38	4.1935E00
470.58	4.1663E00
470.78	4.2015E00
470.99	4.1898E00
471.19	4.1543E00
471.39	4.1958E00
471.59	4.1419E00
471.79	4.1893E00
472.00	4.2092E00
472.20	4.2366E00
472.40	4.1876E00
472.60	4.1965E00
472.81	4.2760E00
473.01	4.2598E00
473.21	4.2095E00
473.41	4.1443E00
473.62	4.2637E00
473.82	4.2932E00
474.02	4.2232E00
474.22	4.2367E00
474.42	4.3330E00
474.63	4.2822E00
474.83	4.2546E00
475.03	4.2646E00
475.23	4.2855E00
475.44	4.2589E00
475.64	4.2813E00
475.84	4.2960E00
476.04	4.2785E00
476.24	4.2893E00
476.45	4.3072E00
476.65	4.2859E00
476.85	4.2782E00
477.05	4.3250E00
477.25	4.3492E00
477.46	4.3236E00
477.66	4.3219E00
477.86	4.3709E00
478.06	4.3757E00
478.26	4.3858E00
478.47	4.3746E00
478.67	4.4388E00
478.87	4.3744E00
479.07	4.3424E00
479.27	4.3894E00
479.47	4.4102E00
479.68	4.4019E00
479.88	4.4092E00
480.08	4.4038E00
480.28	4.4102E00
480.48	4.4036E00
480.69	4.4098E00
480.89	4.3835E00
481.09	4.3929E00
481.29	4.4481E00
481.49	4.3062E00
481.69	4.3922E00
481.90	4.3517E00
482.10	4.3531E00
482.30	4.3777E00
482.50	4.3385E00
482.70	4.2851E00
482.90	4.2770E00
483.11	4.2573E00
483.31	4.2375E00
483.51	4.1474E00
483.71	4.1452E00
483.91	4.1414E00
484.11	4.1269E00
484.32	4.1119E00
484.52	4.1172E00
484.72	4.1001E00
484.92	4.0839E00
485.12	4.0678E00
485.32	4.0483E00
485.52	4.0382E00
485.73	3.9947E00
485.93	3.9843E00
486.13	3.9988E00
486.33	4.0151E00
486.53	4.0358E00
486.73	4.0515E00
486.93	4.0533E00
487.14	4.1117E00
487.34	4.1177E00
487.54	4.1277E00
487.74	4.1664E00
487.94	4.1032E00
488.14	4.1739E00
488.34	4.1815E00
488.54	4.1780E00
488.75	4.1815E00
488.95	4.2086E00
489.15	4.2017E00
489.35	4.1958E00
489.55	4.2024E00
489.75	4.2258E00
489.95	4.2185E00
490.15	4.2234E00
490.36	4.2468E00
490.56	4.2346E00
490.76	4.2733E00
490.96	4.2620E00
491.16	4.2666E00
491.36	4.2559E00
491.56	4.2459E00
491.76	4.1986E00
491.96	4.2563E00
492.17	4.2537E00
492.37	4.2766E00
492.57	4.2984E00
492.77	4.3042E00
492.97	4.3368E00
493.17	4.3090E00
493.37	4.3102E00
493.57	4.3080E00
493.77	4.3146E00
493.97	4.3617E00
494.17	4.3240E00
494.38	4.3437E00
494.58	4.3269E00
494.78	4.3331E00
494.98	4.3333E00
495.18	4.3601E00
495.38	4.3537E00
495.58	4.3669E00
495.78	4.3671E00
495.98	4.3848E00
496.18	4.3755E00
496.38	4.3439E00
496.58	4.3023E00
496.78	4.3636E00
496.99	4.3152E00
497.19	4.3543E00
497.39	4.3672E00
497.59	4.3323E00
497.79	4.2897E00
497.99	4.3166E00
498.19	4.3221E00
498.39	4.3280E00
498.59	4.2811E00
498.79	4.2674E00
498.99	4.2579E00
499.19	4.2760E00
499.39	4.2704E00
499.59	4.2432E00
499.79	4.2411E00
499.99	4.2359E00
500.19	4.2647E00
500.40	4.2317E00
500.60	4.2512E00
500.80	4.2439E00
501.00	4.2300E00
501.20	4.2188E00
501.40	4.2617E00
501.60	4.2276E00
501.80	4.2333E00
502.00	4.2586E00
502.20	4.2457E00
502.40	4.2557E00
502.60	4.2256E00
502.80	4.3072E00
503.00	4.2915E00
503.20	4.2786E00
503.40	4.2720E00
503.60	4.2993E00
503.80	4.3366E00
504.00	4.3227E00
504.20	4.3565E00
504.40	4.3530E00
504.60	4.3794E00
504.80	4.3839E00
505.00	4.3808E00
505.20	4.4068E00
505.40	4.3918E00
505.60	4.3896E00
505.80	4.4117E00
506.00	4.4114E00
506.20	4.4041E00
506.40	4.4039E00
506.60	4.4044E00
506.80	4.3794E00
507.00	4.4084E00
507.20	4.4195E00
507.40	4.4413E00
507.60	4.4063E00
507.80	4.4230E00
508.00	4.4367E00
508.20	4.4722E00
508.40	4.4542E00
508.60	4.4298E00
508.80	4.4111E00
509.00	4.4878E00
509.20	4.4607E00
509.40	4.4529E00
509.60	4.4667E00
509.80	4.4389E00
510.00	4.4861E00
510.20	4.4789E00
510.40	4.4861E00
510.60	4.4569E00
510.80	4.4401E00
511.00	4.4401E00
511.20	4.4918E00
511.40	4.4539E00
511.60	4.4574E00
511.80	4.4684E00
512.00	4.4682E00
512.20	4.4809E00
512.40	4.4504E00
512.60	4.4601E00
512.80	4.4577E00
513.00	4.4807E00
513.20	4.4645E00
513.40	4.4353E00
513.59	4.4127E00
513.79	4.4441E00
513.99	4.4258E00
514.19	4.4257E00
514.39	4.3936E00
514.59	4.4176E00
514.79	4.3887E00
514.99	4.3779E00
515.19	4.3886E00
515.39	4.3940E00
515.59	4.3956E00
515.79	4.3446E00
515.99	4.4049E00
516.19	4.3941E00
516.39	4.3831E00
516.59	4.3998E00
516.79	4.4403E00
516.98	4.4020E00
517.18	4.4622E00
517.38	4.4697E00
517.58	4.4933E00
517.78	4.5166E00
517.98	4.5437E00
518.18	4.5835E00
518.38	4.6681E00
518.58	4.6602E00
518.78	4.6836E00
518.98	4.7136E00
519.18	4.7626E00
519.38	4.8171E00
519.57	4.8342E00
519.77	4.8371E00
519.97	4.8990E00
520.17	4.9146E00
520.37	4.9423E00
520.57	4.9908E00
520.77	5.0236E00
520.97	5.0361E00
521.17	5.0494E00
521.37	5.1016E00
521.57	5.1454E00
521.76	5.1344E00
521.96	5.1854E00
522.16	5.1853E00
522.36	5.2444E00
522.56	5.1925E00
522.76	5.2307E00
522.96	5.2777E00
523.16	5.2591E00
523.36	5.2948E00
523.55	5.2599E00
523.75	5.2733E00
523.95	5.2757E00
524.15	5.2533E00
524.35	5.2750E00
524.55	5.2839E00
524.75	5.3068E00
524.95	5.3155E00
525.14	5.3014E00
525.34	5.2947E00
525.54	5.2752E00
525.74	5.3055E00
525.94	5.3173E00
526.14	5.3520E00
526.34	5.3585E00
526.54	5.3974E00
526.73	5.3622E00
526.93	5.4275E00
527.13	5.4525E00
527.33	5.4815E00
527.53	5.5248E00
527.73	5.5245E00
527.93	5.5819E00
528.12	5.5676E00
528.32	5.6190E00
528.52	5.6881E00
528.72	5.7231E00
528.92	5.7131E00
529.12	5.7356E00
529.32	5.7626E00
529.51	5.7908E00
529.71	5.8019E00
529.91	5.8066E00
530.11	5.8380E00
530.31	5.8784E00
530.51	5.8389E00
530.70	5.8386E00
530.90	5.8800E00
531.10	5.8626E00
531.30	5.8858E00
531.50	5.8826E00
531.70	5.9015E00
531.89	5.8744E00
532.09	5.8896E00
532.29	5.8816E00
532.49	5.9322E00
532.69	5.9191E00
532.88	5.9205E00
533.08	5.9023E00
533.28	5.9347E00
533.48	5.9891E00
533.68	5.9739E00
533.88	6.0293E00
534.07	6.0355E00
534.27	6.0390E00
534.47	6.0746E00
534.67	6.0215E00
534.87	6.0806E00
535.06	6.0776E00
535.26	6.0654E00
535.46	6.0616E00
535.66	6.1519E00
535.86	6.0939E00
536.05	6.0939E00
536.25	6.1090E00
536.45	6.1204E00
536.65	6.1092E00
536.85	6.0915E00
537.04	6.1071E00
537.24	6.1494E00
537.44	6.0632E00
537.64	6.0337E00
537.83	6.1002E00
538.03	6.1117E00
538.23	6.1383E00
538.43	6.1254E00
538.63	6.0743E00
538.82	6.0974E00
539.02	6.1024E00
539.22	6.1328E00
539.42	6.0917E00
539.61	6.1228E00
539.81	6.1219E00
540.01	6.0891E00
540.21	6.1188E00
540.41	6.1078E00
540.60	6.1267E00
540.80	6.1335E00
541.00	6.1376E00
541.20	6.1874E00
541.39	6.1830E00
541.59	6.1903E00
541.79	6.2116E00
541.99	6.2579E00
542.18	6.2431E00
542.38	6.2462E00
542.58	6.2564E00
542.78	6.2887E00
542.97	6.2502E00
543.17	6.3070E00
543.37	6.2809E00
543.57	6.3458E00
543.76	6.3974E00
543.96	6.3923E00
544.16	6.3637E00
544.36	6.3959E00
544.55	6.4542E00
544.75	6.4341E00
544.95	6.4700E00
545.14	6.3966E00
545.34	6.4886E00
545.54	6.4502E00
545.74	6.4691E00
545.93	6.5110E00
546.13	6.5018E00
546.33	6.4722E00
546.53	6.4684E00
546.72	6.5376E00
546.92	6.5406E00
547.12	6.5123E00
547.31	6.5448E00
547.51	6.5420E00
547.71	6.5909E00
547.91	6.5874E00
548.10	6.5197E00
548.30	6.5464E00
548.50	6.6026E00
548.69	6.5938E00
548.89	6.5827E00
549.09	6.5915E00
549.29	6.5825E00
549.48	6.6813E00
549.68	6.5886E00
549.88	6.6565E00
550.07	6.6753E00
550.27	6.6685E00
550.47	6.4928E00
550.66	6.7374E00
550.86	6.6349E00
551.06	6.7404E00
551.25	6.6816E00
551.45	6.7523E00
551.65	6.7547E00
551.85	6.7923E00
552.04	6.6840E00
552.24	6.7643E00
552.44	6.7326E00
552.63	6.7395E00
552.83	6.7870E00
553.03	6.7324E00
553.22	6.8267E00
553.42	6.7616E00
553.62	6.8417E00
553.81	6.7678E00
554.01	6.8066E00
554.21	6.7465E00
554.40	6.7913E00
554.60	6.7683E00
554.80	6.7957E00
554.99	6.7871E00
555.19	6.7762E00
555.39	6.7857E00
555.58	6.7425E00
555.78	6.7575E00
555.98	6.7330E00
556.17	6.7276E00
556.37	6.7295E00
556.56	6.7272E00
556.76	6.7187E00
556.96	6.6797E00
557.15	6.7067E00
557.35	6.6862E00
557.55	6.6858E00
557.74	6.6736E00
557.94	6.7099E00
558.14	6.7320E00
558.33	6.6770E00
558.53	6.6733E00
558.73	6.7076E00
558.92	6.6684E00
559.12	6.7613E00
559.31	6.7738E00
559.51	6.8074E00
559.71	6.7627E00
559.90	6.7955E00
560.10	6.8022E00
560.30	6.8005E00
560.49	6.7839E00
560.69	6.8340E00
560.88	6.8783E00
561.08	6.7978E00
561.28	6.8161E00
561.47	6.8704E00
561.67	6.8780E00
561.86	6.8450E00
562.06	6.8756E00
562.26	6.9050E00
562.45	6.8725E00
562.65	6.8965E00
562.84	6.8371E00
563.04	6.8651E00
563.24	6.8606E00
563.43	6.9196E00
563.63	6.9236E00
563.82	6.8882E00
564.02	6.9246E00
564.22	6.9462E00
564.41	6.8786E00
564.61	6.9205E00
564.80	6.9318E00
565.00	6.8931E00
565.20	6.9462E00
565.39	6.8679E00
565.59	6.8378E00
565.78	6.8900E00
565.98	6.8362E00
566.18	6.9274E00
566.37	6.9021E00
566.57	6.8808E00
566.76	6.8634E00
566.96	6.9251E00
567.15	6.8715E00
567.35	6.9491E00
567.55	6.8937E00
567.74	6.8968E00
567.94	6.8583E00
568.13	6.8984E00
568.33	6.9373E00
568.52	6.9291E00
568.72	6.8865E00
568.91	6.8679E00
569.11	6.8805E00
569.31	6.9506E00
569.50	6.8798E00
569.70	6.9356E00
569.89	6.9287E00
570.09	6.9210E00
570.28	6.9027E00
570.48	6.9295E00
570.67	6.9937E00
570.87	6.9187E00
571.07	6.9292E00
571.26	6.9899E00
571.46	6.9871E00
571.65	7.0155E00
571.85	7.0455E00
572.04	7.0159E00
572.24	7.0806E00
572.43	7.0223E00
572.63	7.0769E00
572.82	7.0428E00
573.02	7.0945E00
573.21	7.0483E00
573.41	7.0782E00
573.60	7.1212E00
573.80	7.0927E00
573.99	7.0621E00
574.19	7.1191E00
574.38	7.0789E00
574.58	7.0976E00
574.78	7.0363E00
574.97	7.0969E00
575.17	7.0775E00
575.36	7.0499E00
575.56	7.0204E00
575.75	7.1064E00
575.95	7.0552E00
576.14	7.0347E00
576.34	7.0995E00
576.53	7.0468E00
576.73	7.0655E00
576.92	7.0178E00
577.12	7.1173E00
577.31	7.0043E00
577.51	7.1277E00
577.70	7.0830E00
577.90	7.0887E00
578.09	7.1300E00
578.29	7.0924E00
578.48	7.1639E00
578.68	7.1291E00
578.87	7.2288E00
579.06	7.1489E00
579.26	7.1966E00
579.45	7.1743E00
579.65	7.2824E00
579.84	7.2330E00
580.04	7.2862E00
580.23	7.3236E00
580.43	7.2364E00
580.62	7.3064E00
580.82	7.3254E00
581.01	7.3062E00
581.21	7.3115E00
581.40	7.3012E00
581.60	7.3873E00
581.79	7.4120E00
581.99	7.3554E00
582.18	7.3589E00
582.37	7.3939E00
582.57	7.3951E00
582.76	7.4283E00
582.96	7.4258E00
583.15	7.4139E00
583.35	7.4127E00
583.54	7.4168E00
583.74	7.4022E00
583.93	7.3677E00
584.12	7.3369E00
584.32	7.4282E00
584.51	7.3851E00
584.71	7.3184E00
584.90	7.3201E00
585.10	7.3232E00
585.29	7.3185E00
585.49	7.3187E00
585.68	7.3212E00
585.87	7.2751E00
586.07	7.2504E00
586.26	7.2263E00
586.46	7.2093E00
586.65	7.1757E00
586.85	7.1880E00
587.04	7.0870E00
587.23	7.1656E00
587.43	7.1306E00
587.62	7.0156E00
587.82	7.0942E00
588.01	7.0183E00
588.20	7.0218E00
588.40	6.9565E00
588.59	7.0007E00
588.79	7.0158E00
588.98	7.0465E00
589.18	7.0055E00
589.37	7.0528E00
589.56	6.9831E00
589.76	6.9685E00
589.95	7.0857E00
590.15	7.0533E00
590.34	7.0116E00
590.53	7.1164E00
590.73	7.0822E00
590.92	7.0963E00
591.11	7.1538E00
591.31	7.1621E00
591.50	7.2030E00
591.70	7.1805E00
591.89	7.2511E00
592.08	7.1825E00
592.28	7.1712E00
592.47	7.2784E00
592.67	7.2788E00
592.86	7.2882E00
593.05	7.2270E00
593.25	7.3078E00
593.44	7.2781E00
593.63	7.3612E00
593.83	7.3047E00
594.02	7.3977E00
594.22	7.3988E00
594.41	7.4485E00
594.60	7.3915E00
594.80	7.4065E00
594.99	7.4240E00
595.18	7.4374E00
595.38	7.4263E00
595.57	7.4586E00
595.76	7.4865E00
595.96	7.4817E00
596.15	7.4277E00
596.34	7.5838E00
596.54	7.5736E00
596.73	7.5418E00
596.93	7.5737E00
597.12	7.5449E00
597.31	7.6058E00
597.51	7.5774E00
597.70	7.5929E00
597.89	7.5766E00
598.09	7.5617E00
598.28	7.6998E00
598.47	7.6004E00
598.67	7.6279E00
598.86	7.5886E00
599.05	7.6900E00
599.25	7.6545E00
599.44	7.6900E00
599.63	7.7258E00
599.83	7.6675E00
600.02	7.6764E00
600.21	7.6818E00
600.41	7.7142E00
600.60	7.6594E00
600.79	7.7161E00
600.98	7.7332E00
601.18	7.8070E00
601.37	7.7147E00
601.56	7.7424E00
601.76	7.8725E00
601.95	7.7641E00
602.14	7.8000E00
602.34	7.7932E00
602.53	7.8717E00
602.72	7.8057E00
602.92	7.8721E00
603.11	7.8421E00
603.30	7.8850E00
603.49	7.8519E00
603.69	7.9609E00
603.88	7.9122E00
604.07	7.9680E00
604.27	7.9379E00
604.46	7.8846E00
604.65	7.9350E00
604.84	7.9305E00
605.04	7.9674E00
605.23	7.9456E00
605.42	7.9404E00
605.62	7.9709E00
605.81	7.9199E00
606.00	7.9436E00
606.19	7.9781E00
606.39	7.9801E00
606.58	7.9218E00
606.77	7.9380E00
606.97	7.8977E00
607.16	7.9719E00
607.35	7.9914E00
607.54	7.9430E00
607.74	7.9968E00
607.93	8.0104E00
608.12	7.9365E00
608.31	7.9760E00
608.51	7.9945E00
608.70	7.9614E00
608.89	7.9520E00
609.08	7.9138E00
609.28	7.9725E00
609.47	7.9833E00
609.66	7.9946E00
609.85	8.0064E00
610.05	8.0091E00
610.24	7.9505E00
610.43	7.9862E00
610.62	7.9634E00
610.82	7.9467E00
611.01	7.9959E00
611.20	7.9627E00
611.39	7.9799E00
611.59	7.9767E00
611.78	8.0165E00
611.97	8.0032E00
612.16	8.0683E00
612.35	7.9825E00
612.55	7.9847E00
612.74	8.0366E00
612.93	8.0222E00
613.12	7.9469E00
613.32	8.0080E00
613.51	8.0307E00
613.70	8.0256E00
613.89	8.0391E00
614.08	8.0615E00
614.28	8.0516E00
614.47	8.0311E00
614.66	8.0661E00
614.85	8.1072E00
615.04	8.0963E00
615.24	8.1742E00
615.43	8.1157E00
615.62	8.1080E00
615.81	8.1248E00
616.00	8.0609E00
616.20	8.1472E00
616.39	8.1697E00
616.58	8.1928E00
616.77	8.2069E00
616.96	8.3215E00
617.16	8.3382E00
617.35	8.3179E00
617.54	8.2985E00
617.73	8.2971E00
617.92	8.3229E00
618.12	8.4102E00
618.31	8.3999E00
618.50	8.4306E00
618.69	8.4089E00
618.88	8.5238E00
619.07	8.4832E00
619.27	8.5158E00
619.46	8.5503E00
619.65	8.6116E00
619.84	8.5407E00
620.03	8.5272E00
620.22	8.6219E00
620.42	8.4848E00
620.61	8.6473E00
620.80	8.6209E00
620.99	8.6069E00
621.18	8.6773E00
621.37	8.5929E00
621.57	8.5123E00
621.76	8.6267E00
621.95	8.6007E00
622.14	8.5449E00
622.33	8.5115E00
622.52	8.5628E00
622.71	8.6149E00
622.91	8.6482E00
623.10	8.6326E00
623.29	8.6113E00
623.48	8.5642E00
623.67	8.6293E00
623.86	8.6287E00
624.05	8.6261E00
624.25	8.5628E00
624.44	8.6219E00
624.63	8.6634E00
624.82	8.6189E00
625.01	8.5766E00
625.20	8.6562E00
625.39	8.5441E00
625.58	8.6305E00
625.78	8.6575E00
625.97	8.5442E00
626.16	8.6020E00
626.35	8.6016E00
626.54	8.6631E00
626.73	8.6597E00
626.92	8.6210E00
627.11	8.6027E00
627.31	8.5979E00
627.50	8.5927E00
627.69	8.6259E00
627.88	8.6499E00
628.07	8.4705E00
628.26	8.5682E00
628.45	8.5581E00
628.64	8.5847E00
628.83	8.5706E00
629.02	8.4697E00
629.22	8.6659E00
629.41	8.5585E00
629.60	8.4884E00
629.79	8.6453E00
629.98	8.5618E00
630.17	8.6214E00
630.36	8.5990E00
630.55	8.6210E00
630.74	8.6573E00
630.93	8.6989E00
631.12	8.5836E00
631.31	8.6041E00
631.51	8.6898E00
631.70	8.6882E00
631.89	8.6224E00
632.08	8.6593E00
632.27	8.6854E00
632.46	8.6657E00
632.65	8.6829E00
632.84	8.6237E00
633.03	8.7635E00
633.22	8.6949E00
633.41	8.7601E00
633.60	8.7544E00
633.79	8.7007E00
633.98	8.6172E00
634.17	8.7100E00
634.37	8.7168E00
634.56	8.7689E00
634.75	8.6391E00
634.94	8.7534E00
635.13	8.7138E00
635.32	8.7752E00
635.51	8.7739E00
635.70	8.6752E00
635.89	8.8359E00
636.08	8.7129E00
636.27	8.6778E00
636.46	8.7848E00
636.65	8.7256E00
636.84	8.6606E00
637.03	8.7704E00
637.22	8.7571E00
637.41	8.7254E00
637.60	8.7597E00
637.79	8.7608E00
637.98	8.7372E00
638.17	8.7325E00
638.36	8.6581E00
638.55	8.6042E00
638.74	8.6133E00
638.93	8.6401E00
639.12	8.6030E00
639.31	8.6229E00
639.50	8.5939E00
639.69	8.5799E00
639.88	8.6612E00
640.07	8.5950E00
640.26	8.6780E00
640.45	8.6348E00
640.64	8.6554E00
640.83	8.6495E00
641.02	8.7135E00
641.21	8.6439E00
641.40	8.5281E00
641.59	8.6508E00
641.78	8.6730E00
641.97	8.6489E00
642.16	8.6818E00
642.35	8.6601E00
642.54	8.6535E00
642.73	8.6170E00
642.92	8.4551E00
643.11	8.6484E00
643.30	8.6581E00
643.49	8.5601E00
643.68	8.5832E00
643.87	8.4920E00
644.06	8.5527E00
644.25	8.4809E00
644.44	8.4868E00
644.63	8.4590E00
644.82	8.4497E00
645.01	8.4842E00
645.20	8.4498E00
645.39	8.3948E00
645.58	8.3650E00
645.77	8.3576E00
645.96	8.4236E00
646.15	8.3547E00
646.34	8.3632E00
646.53	8.3442E00
646.72	8.3532E00
646.91	8.2701E00
647.10	8.4294E00
647.29	8.3075E00
647.47	8.3528E00
647.66	8.2933E00
647.85	8.2601E00
648.04	8.2633E00
648.23	8.2571E00
648.42	8.4162E00
648.61	8.1965E00
648.80	8.3003E00
648.99	8.3521E00
649.18	8.2453E00
649.37	8.3487E00
649.56	8.3087E00
649.75	8.2901E00
649.94	8.3937E00
650.13	8.3668E00
650.31	8.3942E00
650.50	8.3418E00
650.69	8.3984E00
650.88	8.3417E00
651.07	8.3527E00
651.26	8.4031E00
651.45	8.4997E00
651.64	8.4133E00
651.83	8.3271E00
652.02	8.3828E00
652.21	8.3267E00
652.40	8.3075E00
652.58	8.4444E00
652.77	8.2516E00
652.96	8.1986E00
653.15	8.2622E00
653.34	8.2273E00
653.53	8.1985E00
653.72	8.1675E00
653.91	8.0462E00
654.10	8.0643E00
654.29	7.9612E00
654.47	8.0816E00
654.66	7.8766E00
654.85	7.9138E00
655.04	7.8494E00
655.23	7.9108E00
655.42	7.7876E00
655.61	7.8823E00
655.80	7.8535E00
655.98	7.9271E00
656.17	7.9146E00
656.36	7.9726E00
656.55	7.9295E00
656.74	8.0675E00
656.93	8.0706E00
657.12	8.1217E00
657.31	8.0556E00
657.49	8.2626E00
657.68	8.2345E00
657.87	8.1235E00
658.06	8.3629E00
658.25	8.2898E00
658.44	8.4045E00
658.63	8.3595E00
658.81	8.3528E00
659.00	8.4411E00
659.19	8.4183E00
659.38	8.5761E00
659.57	8.5895E00
659.76	8.5123E00
659.95	8.6498E00
660.13	8.4737E00
660.32	8.6026E00
660.51	8.5668E00
660.70	8.6563E00
660.89	8.5934E00
661.08	8.6258E00
661.26	8.5726E00
661.45	8.6578E00
661.64	8.6051E00
661.83	8.5913E00
662.02	8.6140E00
662.21	8.6773E00
662.39	8.7185E00
662.58	8.6443E00
662.77	8.7711E00
662.96	8.6966E00
663.15	8.6075E00
663.33	8.7369E00
663.52	8.6418E00
663.71	8.6457E00
663.90	8.6431E00
664.09	8.5514E00
664.28	8.6339E00
664.46	8.5901E00
664.65	8.5984E00
664.84	8.5465E00
665.03	8.6417E00
665.22	8.6779E00
665.40	8.6694E00
665.59	8.6030E00
665.78	8.6074E00
665.97	8.6031E00
666.16	8.6553E00
666.34	8.7137E00
666.53	8.6042E00
666.72	8.7145E00
666.91	8.6449E00
667.09	8.6544E00
667.28	8.7159E00
667.47	8.6932E00
667.66	8.6439E00
667.85	8.6413E00
668.03	8.3961E00
668.22	8.6817E00
668.41	8.6100E00
668.60	8.4520E00
668.78	8.6564E00
668.97	8.5648E00
669.16	8.5004E00
669.35	8.6302E00
669.54	8.4984E00
669.72	8.6296E00
669.91	8.5613E00
670.10	8.5979E00
670.29	8.5899E00
670.47	8.6405E00
670.66	8.6883E00
670.85	8.6214E00
671.04	8.5235E00
671.22	8.5161E00
671.41	8.6070E00
671.60	8.6110E00
671.79	8.6139E00
671.97	8.5549E00
672.16	8.7099E00
672.35	8.6701E00
672.54	8.6788E00
672.72	8.6083E00
672.91	8.5742E00
673.10	8.6286E00
673.28	8.5860E00
673.47	8.6003E00
673.66	8.6144E00
673.85	8.7278E00
674.03	8.6649E00
674.22	8.6486E00
674.41	8.5830E00
674.60	8.5788E00
674.78	8.4583E00
674.97	8.5171E00
675.16	8.7546E00
675.34	8.6518E00
675.53	8.5927E00
675.72	8.5381E00
675.91	8.7438E00
676.09	8.6369E00
676.28	8.7027E00
676.47	8.6465E00
676.65	8.5178E00
676.84	8.6020E00
677.03	8.6685E00
677.22	8.5494E00
677.40	8.6357E00
677.59	8.5880E00
677.78	8.5546E00
677.96	8.5777E00
678.15	8.6378E00
678.34	8.7054E00
678.52	8.5268E00
678.71	8.5669E00
678.90	8.5835E00
679.08	8.6143E00
679.27	8.5254E00
679.46	8.6810E00
679.64	8.6086E00
679.83	8.5561E00
680.02	8.5767E00
680.21	8.4070E00
680.39	8.6408E00
680.58	8.5652E00
680.77	8.5270E00
680.95	8.5265E00
681.14	8.3994E00
681.33	8.5160E00
681.51	8.5779E00
681.70	8.5264E00
681.89	8.5636E00
682.07	8.4740E00
682.26	8.3249E00
682.44	8.4878E00
682.63	8.4451E00
682.82	8.4665E00
683.00	8.2124E00
683.19	8.3216E00
683.38	8.3406E00
683.56	8.3186E00
683.75	8.2210E00
683.94	8.0535E00
684.12	8.0031E00
684.31	8.0870E00
684.50	8.0567E00
684.68	7.8900E00
684.87	7.8431E00
685.05	7.8370E00
685.24	7.6595E00
685.43	7.6991E00
685.61	7.6574E00
685.80	7.5157E00
685.99	7.5691E00
686.17	7.4023E00
686.36	7.5197E00
686.54	7.4736E00
686.73	7.3954E00
686.92	7.3708E00
687.10	7.2980E00
687.29	7.3820E00
687.48	7.2623E00
687.66	7.4392E00
687.85	7.2886E00
688.03	7.3379E00
688.22	7.2384E00
688.41	7.3926E00
688.59	7.2352E00
688.78	7.4095E00
688.96	7.4522E00
689.15	7.5292E00
689.34	7.2536E00
689.52	7.5768E00
689.71	7.4599E00
689.89	7.5364E00
690.08	7.6413E00
690.27	7.5299E00
690.45	7.5062E00
690.64	7.4924E00
690.82	7.4219E00
691.01	7.5435E00
691.19	7.4831E00
691.38	7.5350E00
691.57	7.5890E00
691.75	7.4536E00
691.94	7.5935E00
692.12	7.4792E00
692.31	7.5906E00
692.50	7.5058E00
692.68	7.5627E00
692.87	7.6304E00
693.05	7.5618E00
693.24	7.4340E00
693.42	7.4749E00
693.61	7.5524E00
693.79	7.6209E00
693.98	7.4952E00
694.17	7.5903E00
694.35	7.6873E00
694.54	7.7006E00
694.72	7.6489E00
694.91	7.6505E00
695.09	7.6662E00
695.28	7.6837E00
695.46	7.7084E00
695.65	7.7353E00
695.83	7.7548E00
696.02	7.8444E00
696.21	7.8568E00
696.39	7.7537E00
696.58	7.8270E00
696.76	7.5931E00
696.95	7.7164E00
697.13	7.7415E00
697.32	7.7930E00
697.50	7.7667E00
697.69	7.7810E00
697.87	7.8102E00
698.06	7.7774E00
698.24	7.6470E00
698.43	7.6578E00
698.61	7.7990E00
698.80	7.6807E00
698.98	7.7621E00
699.17	7.4784E00
699.35	7.6717E00
699.54	7.5958E00
699.72	7.4429E00
699.91	7.6505E00
700.09	7.6278E00
700.28	7.6269E00
700.46	7.6171E00
700.65	7.5517E00
700.83	7.6168E00
701.02	7.6595E00
701.20	7.3830E00
701.39	7.6811E00
701.57	7.5759E00
701.76	7.4563E00
701.94	7.5599E00
702.13	7.6019E00
702.31	7.3928E00
702.50	7.8418E00
702.68	7.7387E00
702.87	7.8041E00
703.05	7.8227E00
703.24	7.7426E00
703.42	7.4728E00
703.61	7.8145E00
703.79	7.8750E00
703.98	7.6571E00
704.16	7.7512E00
704.35	7.6994E00
704.53	7.7717E00
704.72	7.7794E00
704.90	7.8092E00
705.08	7.6674E00
705.27	7.8925E00
705.45	7.8586E00
705.64	7.9263E00
705.82	7.8775E00
706.01	7.8577E00
706.19	7.7844E00
706.38	7.8286E00
706.56	7.9910E00
706.75	7.9394E00
706.93	7.8787E00
707.11	7.7227E00
707.30	7.9299E00
707.48	7.8868E00
707.67	7.7534E00
707.85	7.8213E00
708.04	7.8876E00
708.22	7.8629E00
708.40	7.7674E00
708.59	7.6952E00
708.77	7.9101E00
708.96	7.8235E00
709.14	7.8785E00
709.33	7.7927E00
709.51	7.8750E00
709.69	7.8530E00
709.88	7.8934E00
710.06	7.8502E00
710.25	7.7394E00
710.43	7.8302E00
710.62	7.9109E00
710.80	7.7981E00
710.98	7.8477E00
711.17	7.7797E00
711.35	7.8437E00
711.54	7.8750E00
711.72	7.7219E00
711.90	7.8554E00
712.09	7.8345E00
712.27	7.6481E00
712.46	7.7637E00
712.64	7.6206E00
712.82	7.8040E00
713.01	7.7745E00
713.19	7.7387E00
713.37	7.5999E00
713.56	7.5327E00
713.74	7.6181E00
713.93	7.4609E00
714.11	7.3402E00
714.29	7.1563E00
714.48	7.3281E00
714.66	7.2663E00
714.85	7.0809E00
715.03	7.0498E00
715.21	6.9516E00
715.40	6.7792E00
715.58	6.7491E00
715.76	6.5694E00
715.95	6.5706E00
716.13	6.6585E00
716.31	6.4945E00
716.50	6.3904E00
716.68	6.2432E00
716.87	6.3044E00
717.05	6.2477E00
717.23	6.0450E00
717.42	6.1064E00
717.60	6.0031E00
717.78	6.0268E00
717.97	5.9943E00
718.15	5.9192E00
718.33	5.8388E00
718.52	5.9393E00
718.70	5.9971E00
718.88	5.8597E00
719.07	6.1468E00
719.25	5.9611E00
719.43	6.0303E00
719.62	5.9936E00
719.80	6.0028E00
719.98	6.1936E00
720.17	6.1164E00
720.35	6.1147E00
720.53	6.2534E00
720.72	6.3172E00
720.90	6.2258E00
721.08	6.1635E00
721.27	6.2324E00
721.45	6.2358E00
721.63	6.2072E00
721.82	6.3025E00
722.00	6.1926E00
722.18	6.1944E00
722.36	6.3109E00
722.55	6.2415E00
722.73	6.2285E00
722.91	6.1924E00
723.10	6.2788E00
723.28	6.1657E00
723.46	5.9054E00
723.65	6.0691E00
723.83	6.0572E00
724.01	6.0111E00
724.19	6.1196E00
724.38	6.1148E00
724.56	6.1648E00
724.74	6.2152E00
724.93	5.9576E00
725.11	5.9949E00
725.29	6.1569E00
725.47	6.1452E00
725.66	6.1308E00
725.84	6.0772E00
726.02	6.1066E00
726.21	6.2502E00
726.39	6.1149E00
726.57	6.1649E00
726.75	6.1148E00
726.94	6.2879E00
727.12	6.1542E00
727.30	6.1454E00
727.48	6.0719E00
727.67	6.2389E00
727.85	6.1349E00
728.03	6.1974E00
728.21	6.3079E00
728.40	6.1339E00
728.58	6.3378E00
728.76	6.2228E00
728.94	6.3102E00
729.13	6.3858E00
729.31	6.2197E00
729.49	6.3528E00
729.67	6.3735E00
729.86	6.4368E00
730.04	6.3006E00
730.22	6.5220E00
730.40	6.5062E00
730.59	6.5398E00
730.77	6.5780E00
730.95	6.7434E00
731.13	6.6805E00
731.31	6.7478E00
731.50	6.6040E00
731.68	6.9190E00
731.86	6.8319E00
732.04	6.9455E00
732.23	7.0944E00
732.41	6.9925E00
732.59	7.0784E00
732.77	7.1105E00
732.95	7.1421E00
733.14	7.0572E00
733.32	7.2700E00
733.50	7.1853E00
733.68	7.1722E00
733.86	7.1665E00
734.05	7.2604E00
734.23	7.3074E00
734.41	7.0569E00
734.59	7.2023E00
734.77	7.2398E00
734.96	7.0210E00
735.14	7.3142E00
735.32	7.2493E00
735.50	7.2231E00
735.68	7.3854E00
735.87	7.2358E00
736.05	7.4421E00
736.23	7.0948E00
736.41	7.3672E00
736.59	7.3006E00
736.77	7.2279E00
736.96	7.2043E00
737.14	7.0742E00
737.32	7.3245E00
737.50	7.3939E00
737.68	7.3353E00
737.87	7.4118E00
738.05	7.5257E00
738.23	7.2145E00
738.41	7.3346E00
738.59	7.3912E00
738.77	7.4526E00
738.95	7.5800E00
739.14	7.3454E00
739.32	7.3821E00
739.50	7.6435E00
739.68	7.3948E00
739.86	7.4823E00
740.04	7.4469E00
740.23	7.2967E00
740.41	7.5433E00
740.59	7.5755E00
740.77	7.6655E00
740.95	7.5606E00
741.13	7.4891E00
741.31	7.4267E00
741.50	7.4542E00
741.68	7.3956E00
741.86	7.3575E00
742.04	7.5506E00
742.22	7.6111E00
742.40	7.5412E00
742.58	7.5947E00
742.76	7.6118E00
742.95	7.3294E00
743.13	7.6699E00
743.31	7.5673E00
743.49	7.5154E00
743.67	7.6879E00
743.85	7.6394E00
744.03	7.5195E00
744.21	7.6175E00
744.39	7.4573E00
744.58	7.6696E00
744.76	7.6609E00
744.94	7.7882E00
745.12	7.6698E00
745.30	7.5731E00
745.48	7.7238E00
745.66	7.7748E00
745.84	7.5302E00
746.02	7.5275E00
746.20	7.6204E00
746.38	7.7066E00
746.57	7.8671E00
746.75	7.4401E00
746.93	7.6921E00
747.11	7.4964E00
747.29	7.6177E00
747.47	7.7484E00
747.65	7.6997E00
747.83	7.4403E00
748.01	7.6287E00
748.19	7.6680E00
748.37	7.6375E00
748.55	7.6104E00
748.73	7.5090E00
748.92	7.6355E00
749.10	7.4953E00
749.28	7.6805E00
749.46	7.5345E00
749.64	7.4614E00
749.82	7.5372E00
750.00	7.6448E00
750.18	7.5835E00
750.36	7.3972E00
750.54	7.6044E00
750.72	7.7172E00
750.90	7.7047E00
751.08	7.5908E00
751.26	7.7319E00
751.44	7.7029E00
751.62	7.8274E00
751.80	7.6685E00
751.98	7.7398E00
752.16	7.7978E00
752.34	7.8269E00
752.52	7.8769E00
752.71	7.5698E00
752.89	7.5253E00
753.07	7.8380E00
753.25	7.5243E00
753.43	7.8448E00
753.61	7.6196E00
753.79	7.8983E00
753.97	7.8039E00
754.15	7.8367E00
754.33	7.8935E00
754.51	7.9100E00
754.69	7.9319E00
754.87	7.8190E00
755.05	7.8291E00
755.23	7.9767E00
755.41	8.0688E00
755.59	7.2776E00
755.77	7.7553E00
755.95	7.6846E00
756.13	7.3997E00
756.31	7.6699E00
756.49	7.6435E00
756.67	7.4337E00
756.85	7.3392E00
757.03	7.1786E00
757.21	7.1336E00
757.39	7.0795E00
757.57	7.0337E00
757.75	6.6667E00
757.93	6.3302E00
758.11	6.3346E00
758.29	6.1704E00
758.47	5.9146E00
758.65	5.8680E00
758.83	5.9754E00
759.01	5.6955E00
759.18	5.4577E00
759.36	5.0351E00
759.54	5.1831E00
759.72	4.9099E00
759.90	4.9854E00
760.08	4.9187E00
760.26	4.8929E00
760.44	4.6337E00
760.62	4.4347E00
760.80	4.4395E00
760.98	4.7738E00
761.16	4.7674E00
761.34	4.5966E00
761.52	4.8580E00
761.70	4.5677E00
761.88	4.6305E00
762.06	4.6932E00
762.24	4.6649E00
762.42	4.7135E00
762.60	4.7632E00
762.78	4.8923E00
762.95	4.8745E00
763.13	5.0682E00
763.31	5.1917E00
763.49	5.1241E00
763.67	5.2702E00
763.85	5.1392E00
764.03	5.5675E00
764.21	5.4366E00
764.39	5.7110E00
764.57	5.9877E00
764.75	5.9603E00
764.93	6.3789E00
765.11	6.1756E00
765.28	6.5198E00
765.46	6.5435E00
765.64	6.5626E00
765.82	6.7927E00
766.00	6.9660E00
766.18	7.0882E00
766.36	7.1639E00
766.54	7.2053E00
766.72	7.3195E00
766.90	7.6874E00
767.07	7.3145E00
767.25	7.5719E00
767.43	7.6753E00
767.61	7.8743E00
767.79	7.9243E00
767.97	7.8818E00
768.15	7.8144E00
768.33	7.7126E00
768.51	7.9921E00
768.68	8.0038E00
768.86	7.8795E00
769.04	7.9506E00
769.22	8.3247E00
769.40	8.2767E00
769.58	8.0793E00
769.76	8.4617E00
769.94	8.3952E00
770.11	8.1331E00
770.29	8.2536E00
770.47	8.2320E00
770.65	8.2750E00
770.83	8.2585E00
771.01	8.4048E00
771.19	8.3864E00
771.36	8.1800E00
771.54	8.4066E00
771.72	8.2711E00
771.90	8.0794E00
772.08	8.3318E00
772.26	8.4697E00
772.44	8.0958E00
772.61	8.3073E00
772.79	8.0517E00
772.97	8.3588E00
773.15	8.5022E00
773.33	8.1362E00
773.51	8.3718E00
773.68	8.1367E00
773.86	8.0430E00
774.04	8.1892E00
774.22	8.0183E00
774.40	8.1657E00
774.58	8.2861E00
774.75	8.2358E00
774.93	7.9451E00
775.11	8.3477E00
775.29	8.1121E00
775.47	7.9246E00
775.64	8.2459E00
775.82	8.0878E00
776.00	8.1768E00
776.18	7.9569E00
776.36	7.9783E00
776.53	8.3223E00
776.71	7.9565E00
776.89	7.9053E00
777.07	8.0660E00
777.25	8.0138E00
777.42	8.0220E00
777.60	7.8603E00
777.78	8.0468E00
777.96	7.9133E00
778.14	8.0907E00
778.31	7.9370E00
778.49	7.6167E00
778.67	7.7071E00
778.85	7.7957E00
779.03	7.9241E00
779.20	7.8999E00
779.38	7.8032E00
779.56	7.6009E00
779.74	7.8819E00
779.91	7.6972E00
780.09	7.6406E00
780.27	7.4573E00
780.45	7.5893E00
780.62	7.7279E00
780.80	7.7912E00
780.98	7.4375E00
781.16	7.2696E00
781.34	7.6059E00
781.51	7.6552E00
781.69	7.6793E00
781.87	7.5910E00
782.05	7.4878E00
782.22	7.5274E00
782.40	7.4028E00
782.58	7.4740E00
782.76	7.2574E00
782.93	7.5002E00
783.11	7.6420E00
783.29	7.3180E00
783.47	7.3263E00
783.64	7.4098E00
783.82	7.2573E00
784.00	7.0123E00
784.17	7.2219E00
784.35	7.2679E00
784.53	7.1444E00
784.71	7.3066E00
784.88	7.1373E00
785.06	7.4256E00
785.24	7.1391E00
785.42	7.2990E00
785.59	7.1918E00
785.77	6.8416E00
785.95	7.0110E00
786.12	6.8374E00
786.30	7.0654E00
786.48	7.0310E00
786.65	6.9376E00
786.83	6.9998E00
787.01	7.0127E00
787.19	6.9150E00
787.36	6.9675E00
787.54	6.8607E00
787.72	6.9442E00
787.89	6.9086E00
788.07	6.8510E00
788.25	6.8039E00
788.42	6.7250E00
788.60	6.9643E00
788.78	6.7550E00
788.96	6.7941E00
789.13	6.6163E00
789.31	6.6409E00
789.49	6.6235E00
789.66	6.7885E00
789.84	6.5323E00
790.02	6.2360E00
790.19	6.4391E00
790.37	6.5245E00
790.55	6.4482E00
790.72	6.4700E00
790.90	6.7243E00
791.08	6.3973E00
791.25	6.4435E00
791.43	6.4690E00
791.61	6.3323E00
791.78	6.3330E00
791.96	6.0689E00
792.14	6.3024E00
792.31	6.4355E00
792.49	6.0054E00
792.67	6.5060E00
792.84	6.1545E00
793.02	6.1840E00
793.19	6.1063E00
793.37	6.3693E00
793.55	6.3953E00
793.72	6.3180E00
793.90	6.0256E00
794.08	6.2290E00
794.25	6.2517E00
794.43	6.0696E00
794.61	6.2017E00
794.78	6.1960E00
794.96	5.9325E00
795.13	6.1867E00
795.31	6.2374E00
795.49	5.9353E00
795.66	6.1565E00
795.84	6.0511E00
796.01	6.1121E00
796.19	5.9713E00
796.37	6.1707E00
796.54	6.0906E00
796.72	6.1752E00
796.90	6.0418E00
797.07	5.8470E00
797.25	6.0295E00
797.42	6.1833E00
797.60	6.1339E00
797.78	6.0065E00
797.95	5.8186E00
798.13	5.6960E00
798.30	5.9594E00
798.48	5.8813E00
798.66	6.0783E00
798.83	5.6752E00
799.01	5.8916E00
799.18	5.7417E00
799.36	5.9961E00
799.53	5.4874E00
799.71	5.8956E00
799.89	5.6668E00
800.06	5.6980E00
800.24	5.7044E00
800.41	5.4254E00
800.59	5.8428E00
800.76	5.4915E00
800.94	5.5138E00
801.12	5.7606E00
801.29	5.6992E00
801.47	5.7926E00
801.64	5.5132E00
801.82	5.7950E00
801.99	5.7803E00
802.17	5.7662E00
802.34	5.6906E00
802.52	5.6832E00
802.70	5.8013E00
802.87	5.5182E00
803.05	5.4097E00
803.22	5.8688E00
803.40	5.6066E00
803.57	5.6345E00
803.75	5.8900E00
803.92	5.7093E00
804.10	5.4260E00
804.27	5.4717E00
804.45	5.6249E00
804.63	5.5297E00
804.80	5.3996E00
804.98	5.6237E00
805.15	5.2829E00
805.33	5.7790E00
805.50	5.8173E00
805.68	5.7180E00
805.85	5.8419E00
806.03	5.6414E00
806.20	5.6746E00
806.38	5.1523E00
806.55	5.2695E00
806.73	5.7703E00
806.90	5.4692E00
807.08	5.3777E00
807.25	5.1267E00
807.43	5.4011E00
807.60	5.5147E00
807.78	5.1868E00
807.95	4.9362E00
808.13	5.0901E00
808.30	5.0125E00
808.48	5.3634E00
808.65	5.1942E00
808.83	5.5220E00
809.00	5.2282E00
809.18	5.5142E00
809.35	5.0452E00
809.53	5.3842E00
809.70	5.2164E00
809.88	5.2603E00
810.05	5.1943E00
810.23	5.3614E00
810.40	5.2280E00
810.57	5.2083E00
810.75	4.9584E00
810.92	4.9384E00
811.10	4.9954E00
811.27	4.7768E00
811.45	4.9077E00
811.62	4.7952E00
811.80	4.6495E00
811.97	4.8767E00
812.15	4.8710E00
812.32	4.8720E00
812.50	4.4277E00
812.67	5.1108E00
812.84	4.5338E00
813.02	4.7664E00
813.19	4.6978E00
813.37	4.7121E00
813.54	4.4492E00
813.72	4.5662E00
813.89	4.3130E00
814.07	4.5060E00
814.24	4.5698E00
814.41	4.6280E00
814.59	4.2768E00
814.76	4.2277E00
814.94	4.4302E00
815.11	4.5381E00
815.29	3.9144E00
815.46	4.0449E00
815.63	4.1768E00
815.81	4.2163E00
815.98	3.7707E00
816.16	3.8321E00
816.33	4.2512E00
816.50	4.3880E00
816.68	4.1943E00
816.85	4.0174E00
817.03	4.2241E00
817.20	4.1040E00
817.37	4.2822E00
817.55	4.0517E00
817.72	4.1849E00
817.90	3.8580E00
818.07	4.1568E00
818.24	3.8071E00
818.42	3.9522E00
818.59	3.9383E00
818.77	3.9637E00
818.94	4.2334E00
819.11	3.8570E00
819.29	4.2792E00
819.46	4.2167E00
819.64	3.7897E00
819.81	4.4048E00
819.98	4.3027E00
820.16	3.9705E00
820.33	4.2449E00
820.50	4.2250E00
820.68	3.9609E00
820.85	4.2163E00
821.02	4.1267E00
821.20	3.9174E00
821.37	4.1781E00
821.55	3.7614E00
821.72	4.0268E00
821.89	4.0789E00
822.07	4.3159E00
822.24	4.2816E00
822.41	3.7572E00
822.59	4.4715E00
822.76	4.4436E00
822.93	4.0225E00
823.11	4.1353E00
823.28	4.2732E00
823.45	4.0849E00
823.63	4.1232E00
823.80	4.3656E00
823.97	3.7258E00
824.15	4.3795E00
824.32	4.1204E00
824.49	4.6183E00
824.67	4.1496E00
824.84	4.3441E00
825.01	4.3476E00
825.19	4.3663E00
825.36	4.3284E00
825.53	4.5535E00
825.71	4.4579E00
825.88	4.5411E00
826.05	4.1431E00
826.23	4.4394E00
826.40	4.2488E00
826.57	4.3110E00
826.75	4.1868E00
826.92	3.9917E00
827.09	3.9858E00
827.26	4.6061E00
827.44	4.2808E00
827.61	4.5761E00
827.78	4.3768E00
827.96	3.8855E00
828.13	4.5683E00
828.30	4.3702E00
828.48	4.2312E00
828.65	4.1711E00
828.82	4.2207E00
828.99	4.2369E00
829.17	4.3187E00
829.34	3.7831E00
829.51	4.2173E00
829.68	4.5748E00
829.86	4.4612E00
830.03	4.2444E00
830.20	4.3743E00
830.38	4.2797E00
830.55	4.0215E00
830.72	4.3599E00
830.89	3.9757E00
831.07	3.9984E00
831.24	3.9890E00
831.41	4.1009E00
831.58	4.3822E00
831.76	4.6358E00
831.93	4.3907E00
832.10	4.3767E00
832.27	3.8887E00
832.45	3.8893E00
832.62	4.2934E00
832.79	4.0419E00
832.96	4.3065E00
833.14	3.8361E00
833.31	4.4641E00
833.48	4.2290E00
833.65	3.9946E00
833.83	4.4909E00
834.00	4.5497E00
834.17	4.1930E00
834.34	4.3910E00
834.51	4.1913E00
834.69	4.0181E00
834.86	4.4727E00
835.03	4.1738E00
835.20	4.4601E00
835.38	4.1970E00
835.55	4.2933E00
835.72	4.1317E00
835.89	4.8206E00
836.06	4.1642E00
836.24	4.1513E00
836.41	3.9656E00
836.58	4.5189E00
836.75	4.4585E00
836.92	4.3525E00
837.10	4.0516E00
837.27	4.2412E00
837.44	4.0392E00
837.61	4.5946E00
837.78	4.1262E00
837.96	4.3874E00
838.13	4.2146E00
838.30	4.5100E00
838.47	4.3517E00
838.64	4.2624E00
838.82	4.1955E00
838.99	4.6873E00
839.16	4.1356E00
839.33	4.2186E00
839.50	4.6281E00
839.67	4.3748E00
839.85	3.8576E00
840.02	4.3195E00
840.19	4.0940E00
840.36	4.5303E00
840.53	3.9613E00
840.70	3.9191E00
840.88	4.4626E00
841.05	4.6092E00
841.22	4.3380E00
841.39	4.3155E00
841.56	4.3883E00
841.73	4.2802E00
841.91	4.5010E00
842.08	4.4907E00
842.25	4.4023E00
842.42	4.5195E00
842.59	4.3817E00
842.76	4.8688E00
842.93	4.4020E00
843.11	4.5353E00
843.28	4.3833E00
843.45	4.4200E00
843.62	4.0724E00
843.79	4.1808E00
843.96	4.7240E00
844.13	4.4460E00
844.30	4.4070E00
844.48	4.6781E00
844.65	4.0798E00
844.82	3.8583E00
844.99	4.2104E00
845.16	4.1555E00
845.33	4.2067E00
845.50	4.2123E00
845.67	3.8514E00
845.84	4.1826E00
846.02	3.9802E00
846.19	4.1743E00
846.36	4.1667E00
846.53	4.6020E00
846.70	4.2700E00
846.87	3.7810E00
847.04	4.3413E00
847.21	4.3084E00
847.38	4.3183E00
847.55	4.3062E00
847.73	3.9823E00
847.90	4.1667E00
848.07	3.8676E00
848.24	3.9780E00
848.41	3.8506E00
848.58	4.8265E00
848.75	4.1024E00
848.92	4.6801E00
849.09	4.2219E00
849.26	4.0775E00
849.43	3.9044E00
849.60	4.1444E00
849.77	4.4413E00
849.94	3.3000E00
850.12	4.5117E00
850.29	4.2633E00
850.46	4.0921E00
850.63	3.9782E00
850.80	4.2347E00
850.97	4.2165E00
851.14	3.8193E00
851.31	3.5088E00
851.48	3.8917E00
851.65	4.0444E00
851.82	4.3813E00
851.99	4.2556E00
852.16	3.4872E00
852.33	4.0562E00
852.50	3.8518E00
852.67	3.9730E00
852.84	4.1100E00
853.01	3.9067E00
853.18	4.1721E00
853.35	3.7420E00
853.52	4.4804E00
853.69	3.9507E00
853.86	3.5840E00
854.03	3.5493E00
854.21	4.0970E00
854.38	3.9391E00
854.55	4.1675E00
854.72	4.2304E00
854.89	3.6501E00
855.06	3.3058E00
855.23	3.9006E00
855.40	4.3543E00
855.57	3.6198E00
855.74	3.8478E00
855.91	4.0192E00
856.08	3.6505E00
856.25	4.0022E00
856.42	3.8959E00
856.59	3.8639E00
856.76	3.9992E00
856.93	3.9666E00
857.10	3.9395E00
857.27	4.4456E00
857.44	4.1244E00
857.61	4.1120E00
857.77	3.7157E00
857.94	3.7387E00
858.11	3.6840E00
858.28	4.3855E00
858.45	3.6672E00
858.62	4.0563E00
858.79	3.8427E00
858.96	3.8724E00
859.13	3.8923E00
859.30	4.1681E00
859.47	3.7615E00
859.64	3.3372E00
859.81	4.1687E00
859.98	4.2017E00
860.15	3.9235E00
860.32	3.7396E00
860.49	4.6642E00
860.66	4.0610E00
860.83	4.2051E00
861.00	4.0707E00
861.17	4.1495E00
861.34	4.2223E00
861.51	3.4428E00
861.68	4.2733E00
861.84	4.0748E00
862.01	3.7380E00
862.18	3.8606E00
862.35	4.1281E00
862.52	4.1052E00
862.69	3.8550E00
862.86	4.0482E00
863.03	4.2091E00
863.20	4.0154E00
863.37	4.1206E00
863.54	3.6593E00
863.71	3.6330E00
863.88	3.8714E00
864.05	3.8331E00
864.21	4.1345E00
864.38	3.5568E00
864.55	3.4163E00
864.72	4.2323E00
864.89	3.8034E00
865.06	4.1659E00
865.23	3.7055E00
865.40	3.4179E00
865.57	4.2052E00
865.74	3.8936E00
865.90	3.9717E00
866.07	3.9382E00
866.24	3.4067E00
866.41	3.3076E00
866.58	3.4652E00
866.75	3.5902E00
866.92	3.6534E00
867.09	3.6684E00
867.26	3.7297E00
867.42	3.3577E00
867.59	3.0888E00
867.76	3.8216E00
867.93	3.4901E00
868.10	3.6620E00
868.27	2.9709E00
868.44	3.6846E00
868.60	3.8800E00
868.77	3.7904E00
868.94	3.6068E00
869.11	3.5102E00
869.28	3.9108E00
869.45	3.0842E00
869.62	3.7871E00
869.78	3.5779E00
869.95	3.1841E00
870.12	3.4310E00
870.29	3.6789E00
870.46	3.7202E00
870.63	3.3384E00
870.80	2.9853E00
870.96	3.2900E00
871.13	3.1851E00
871.30	3.6085E00
871.47	3.6584E00
871.64	3.6427E00
871.81	2.6582E00
871.97	3.9037E00
872.14	2.9733E00
872.31	2.8162E00
872.48	3.1691E00
872.65	3.6897E00
872.81	3.3231E00
872.98	3.8906E00
873.15	3.7063E00
873.32	3.7260E00
873.49	3.4127E00
873.66	3.7490E00
873.82	3.5075E00
873.99	3.3056E00
874.16	3.7074E00
874.33	3.4653E00
874.50	3.8646E00
874.66	3.5965E00
874.83	3.7119E00
875.00	3.6713E00
875.17	3.0174E00
875.34	3.9653E00
875.50	3.5316E00
875.67	3.4345E00
875.84	3.5969E00
876.01	3.4050E00
876.17	3.1803E00
876.34	3.1770E00
876.51	3.9970E00
876.68	3.7699E00
876.85	3.6181E00
877.01	3.8440E00
877.18	3.3437E00
877.35	3.4989E00
877.52	3.4271E00
877.68	3.6959E00
877.85	3.3184E00
878.02	3.4904E00
878.19	3.3448E00
878.35	3.5225E00
878.52	3.4328E00
878.69	3.5697E00
878.86	3.0825E00
879.02	3.3540E00
879.19	2.9535E00
879.36	3.1916E00
879.53	2.6908E00
879.69	3.2046E00
879.86	3.7409E00
880.03	3.6462E00
880.20	3.1745E00
880.36	3.7623E00
880.53	3.0969E00
880.70	3.8371E00
880.87	3.3921E00
881.03	3.4351E00
881.20	2.8382E00
881.37	3.3469E00
881.54	3.5380E00
881.70	3.8391E00
881.87	3.2447E00
882.04	3.2657E00
882.20	3.2840E00
882.37	2.8592E00
882.54	3.5047E00
882.71	3.4369E00
882.87	3.8153E00
883.04	3.2813E00
883.21	3.2801E00
883.37	3.1161E00
883.54	3.3184E00
883.71	3.1573E00
883.87	2.9220E00
884.04	3.6774E00
884.21	3.1851E00
884.38	2.9794E00
884.54	3.7729E00
884.71	3.7856E00
884.88	3.2011E00
885.04	3.3915E00
885.21	3.0922E00
885.38	3.0888E00
885.54	3.9783E00
885.71	3.1839E00
885.88	3.4409E00
886.04	3.3228E00
886.21	3.3373E00
886.38	3.1178E00
886.54	3.1832E00
886.71	2.9038E00
886.88	3.6435E00
887.04	2.6933E00
887.21	3.0435E00
887.38	3.4420E00
887.54	2.7603E00
887.71	3.5210E00
887.88	2.4067E00
888.04	3.6161E00
888.21	3.1427E00
888.38	3.5404E00
888.54	2.9863E00
888.71	2.9046E00
888.87	2.4364E00
889.04	2.4364E00
>>>>>End Processed Spectral Data<<<<<
