SpectraSuite Data File
++++++++++++++++++++++++++++++++++++
Date: Wed Jul 25 11:22:21 HST 2007
User: guest
Dark Spectrum Present: Yes
Reference Spectrum Present: No
Number of Sampled Component Spectra: 1
Spectrometers: USB4E01242
Integration Time (usec): 100000 (USB4E01242)
Spectra Averaged: 1 (USB4E01242)
Boxcar Smoothing: 10 (USB4E01242)
Correct for Electrical Dark: No (USB4E01242)
Strobe/Lamp Enabled: No (USB4E01242)
Correct for Detector Non-linearity: No (USB4E01242)
Correct for Stray Light: No (USB4E01242)
Number of Pixels in Processed Spectrum: 3648
>>>>>Begin Processed Spectral Data<<<<<
177.33	0.0000E00
177.55	0.0000E00
177.77	0.0000E00
177.99	0.0000E00
178.21	0.0000E00
178.43	0.0000E00
178.64	0.0000E00
178.86	0.0000E00
179.08	0.0000E00
179.30	0.0000E00
179.52	0.0000E00
179.74	0.0000E00
179.96	0.0000E00
180.18	0.0000E00
180.39	0.0000E00
180.61	0.0000E00
180.83	0.0000E00
181.05	0.0000E00
181.27	0.0000E00
181.49	0.0000E00
181.71	0.0000E00
181.92	0.0000E00
182.14	0.0000E00
182.36	0.0000E00
182.58	0.0000E00
182.80	0.0000E00
183.02	0.0000E00
183.23	0.0000E00
183.45	0.0000E00
183.67	0.0000E00
183.89	0.0000E00
184.11	0.0000E00
184.33	0.0000E00
184.55	0.0000E00
184.76	0.0000E00
184.98	0.0000E00
185.20	0.0000E00
185.42	0.0000E00
185.64	0.0000E00
185.86	0.0000E00
186.07	0.0000E00
186.29	0.0000E00
186.51	0.0000E00
186.73	0.0000E00
186.95	0.0000E00
187.17	0.0000E00
187.38	0.0000E00
187.60	0.0000E00
187.82	0.0000E00
188.04	0.0000E00
188.26	0.0000E00
188.47	0.0000E00
188.69	0.0000E00
188.91	0.0000E00
189.13	0.0000E00
189.35	0.0000E00
189.57	0.0000E00
189.78	0.0000E00
190.00	0.0000E00
190.22	0.0000E00
190.44	0.0000E00
190.66	0.0000E00
190.87	0.0000E00
191.09	0.0000E00
191.31	0.0000E00
191.53	-0.0000E00
191.75	0.0000E00
191.97	0.0000E00
192.18	0.0000E00
192.40	0.0000E00
192.62	0.0000E00
192.84	0.0000E00
193.06	0.0000E00
193.27	0.0000E00
193.49	0.0000E00
193.71	0.0000E00
193.93	0.0000E00
194.15	0.0000E00
194.36	0.0000E00
194.58	0.0000E00
194.80	0.0000E00
195.02	0.0000E00
195.23	0.0000E00
195.45	0.0000E00
195.67	0.0000E00
195.89	0.0000E00
196.11	0.0000E00
196.32	0.0000E00
196.54	0.0000E00
196.76	0.0000E00
196.98	0.0000E00
197.20	0.0000E00
197.41	0.0000E00
197.63	0.0000E00
197.85	0.0000E00
198.07	0.0000E00
198.28	0.0000E00
198.50	0.0000E00
198.72	0.0000E00
198.94	0.0000E00
199.16	0.0000E00
199.37	0.0000E00
199.59	0.0000E00
199.81	0.0000E00
200.03	0.0000E00
200.24	0.0000E00
200.46	0.0000E00
200.68	0.0000E00
200.90	0.0000E00
201.11	0.0000E00
201.33	0.0000E00
201.55	0.0000E00
201.77	0.0000E00
201.98	0.0000E00
202.20	0.0000E00
202.42	0.0000E00
202.64	0.0000E00
202.86	0.0000E00
203.07	0.0000E00
203.29	0.0000E00
203.51	0.0000E00
203.73	0.0000E00
203.94	0.0000E00
204.16	0.0000E00
204.38	0.0000E00
204.60	0.0000E00
204.81	0.0000E00
205.03	0.0000E00
205.25	0.0000E00
205.46	0.0000E00
205.68	0.0000E00
205.90	0.0000E00
206.12	0.0000E00
206.33	0.0000E00
206.55	0.0000E00
206.77	0.0000E00
206.99	0.0000E00
207.20	0.0000E00
207.42	0.0000E00
207.64	0.0000E00
207.86	0.0000E00
208.07	0.0000E00
208.29	0.0000E00
208.51	0.0000E00
208.72	0.0000E00
208.94	0.0000E00
209.16	0.0000E00
209.38	0.0000E00
209.59	0.0000E00
209.81	0.0000E00
210.03	0.0000E00
210.25	0.0000E00
210.46	0.0000E00
210.68	0.0000E00
210.90	0.0000E00
211.11	0.0000E00
211.33	0.0000E00
211.55	0.0000E00
211.77	0.0000E00
211.98	0.0000E00
212.20	0.0000E00
212.42	0.0000E00
212.63	0.0000E00
212.85	0.0000E00
213.07	0.0000E00
213.29	0.0000E00
213.50	0.0000E00
213.72	0.0000E00
213.94	0.0000E00
214.15	0.0000E00
214.37	0.0000E00
214.59	0.0000E00
214.80	0.0000E00
215.02	0.0000E00
215.24	0.0000E00
215.45	0.0000E00
215.67	0.0000E00
215.89	0.0000E00
216.11	0.0000E00
216.32	0.0000E00
216.54	0.0000E00
216.76	0.0000E00
216.97	0.0000E00
217.19	0.0000E00
217.41	0.0000E00
217.62	0.0000E00
217.84	0.0000E00
218.06	0.0000E00
218.27	0.0000E00
218.49	0.0000E00
218.71	0.0000E00
218.92	0.0000E00
219.14	0.0000E00
219.36	0.0000E00
219.57	0.0000E00
219.79	0.0000E00
220.01	0.0000E00
220.22	0.0000E00
220.44	0.0000E00
220.66	0.0000E00
220.88	0.0000E00
221.09	0.0000E00
221.31	0.0000E00
221.53	0.0000E00
221.74	0.0000E00
221.96	0.0000E00
222.17	0.0000E00
222.39	0.0000E00
222.61	0.0000E00
222.82	0.0000E00
223.04	0.0000E00
223.26	0.0000E00
223.47	0.0000E00
223.69	0.0000E00
223.91	0.0000E00
224.12	0.0000E00
224.34	0.0000E00
224.56	0.0000E00
224.77	0.0000E00
224.99	0.0000E00
225.21	0.0000E00
225.42	0.0000E00
225.64	0.0000E00
225.86	0.0000E00
226.07	0.0000E00
226.29	0.0000E00
226.50	0.0000E00
226.72	0.0000E00
226.94	0.0000E00
227.15	0.0000E00
227.37	0.0000E00
227.59	0.0000E00
227.80	0.0000E00
228.02	0.0000E00
228.24	0.0000E00
228.45	0.0000E00
228.67	0.0000E00
228.88	0.0000E00
229.10	0.0000E00
229.32	0.0000E00
229.53	0.0000E00
229.75	0.0000E00
229.97	0.0000E00
230.18	0.0000E00
230.40	0.0000E00
230.61	0.0000E00
230.83	0.0000E00
231.05	0.0000E00
231.26	0.0000E00
231.48	0.0000E00
231.70	0.0000E00
231.91	0.0000E00
232.13	0.0000E00
232.34	0.0000E00
232.56	0.0000E00
232.78	0.0000E00
232.99	0.0000E00
233.21	0.0000E00
233.42	0.0000E00
233.64	0.0000E00
233.86	0.0000E00
234.07	0.0000E00
234.29	0.0000E00
234.50	0.0000E00
234.72	0.0000E00
234.94	0.0000E00
235.15	0.0000E00
235.37	0.0000E00
235.58	0.0000E00
235.80	0.0000E00
236.02	0.0000E00
236.23	0.0000E00
236.45	0.0000E00
236.66	0.0000E00
236.88	0.0000E00
237.10	0.0000E00
237.31	0.0000E00
237.53	0.0000E00
237.74	0.0000E00
237.96	0.0000E00
238.17	0.0000E00
238.39	0.0000E00
238.61	0.0000E00
238.82	0.0000E00
239.04	0.0000E00
239.25	0.0000E00
239.47	0.0000E00
239.69	0.0000E00
239.90	0.0000E00
240.12	0.0000E00
240.33	0.0000E00
240.55	0.0000E00
240.76	0.0000E00
240.98	0.0000E00
241.20	0.0000E00
241.41	0.0000E00
241.63	0.0000E00
241.84	0.0000E00
242.06	0.0000E00
242.27	0.0000E00
242.49	0.0000E00
242.70	0.0000E00
242.92	0.0000E00
243.14	0.0000E00
243.35	0.0000E00
243.57	0.0000E00
243.78	0.0000E00
244.00	0.0000E00
244.21	0.0000E00
244.43	0.0000E00
244.64	0.0000E00
244.86	0.0000E00
245.08	0.0000E00
245.29	0.0000E00
245.51	0.0000E00
245.72	0.0000E00
245.94	0.0000E00
246.15	0.0000E00
246.37	0.0000E00
246.58	0.0000E00
246.80	0.0000E00
247.01	0.0000E00
247.23	0.0000E00
247.45	0.0000E00
247.66	0.0000E00
247.88	0.0000E00
248.09	0.0000E00
248.31	0.0000E00
248.52	0.0000E00
248.74	0.0000E00
248.95	0.0000E00
249.17	0.0000E00
249.38	0.0000E00
249.60	0.0000E00
249.81	0.0000E00
250.03	0.0000E00
250.24	0.0000E00
250.46	0.0000E00
250.67	0.0000E00
250.89	0.0000E00
251.10	0.0000E00
251.32	0.0000E00
251.53	0.0000E00
251.75	0.0000E00
251.97	0.0000E00
252.18	0.0000E00
252.40	0.0000E00
252.61	0.0000E00
252.83	0.0000E00
253.04	0.0000E00
253.26	0.0000E00
253.47	0.0000E00
253.69	0.0000E00
253.90	0.0000E00
254.12	0.0000E00
254.33	0.0000E00
254.55	0.0000E00
254.76	0.0000E00
254.98	0.0000E00
255.19	0.0000E00
255.41	0.0000E00
255.62	0.0000E00
255.84	0.0000E00
256.05	0.0000E00
256.27	0.0000E00
256.48	0.0000E00
256.70	0.0000E00
256.91	0.0000E00
257.13	0.0000E00
257.34	0.0000E00
257.55	0.0000E00
257.77	0.0000E00
257.98	0.0000E00
258.20	0.0000E00
258.41	0.0000E00
258.63	0.0000E00
258.84	0.0000E00
259.06	0.0000E00
259.27	0.0000E00
259.49	0.0000E00
259.70	0.0000E00
259.92	0.0000E00
260.13	0.0000E00
260.35	0.0000E00
260.56	0.0000E00
260.78	0.0000E00
260.99	0.0000E00
261.21	0.0000E00
261.42	0.0000E00
261.63	0.0000E00
261.85	0.0000E00
262.06	0.0000E00
262.28	0.0000E00
262.49	0.0000E00
262.71	0.0000E00
262.92	0.0000E00
263.14	0.0000E00
263.35	0.0000E00
263.57	0.0000E00
263.78	0.0000E00
264.00	0.0000E00
264.21	0.0000E00
264.42	0.0000E00
264.64	0.0000E00
264.85	0.0000E00
265.07	0.0000E00
265.28	0.0000E00
265.50	0.0000E00
265.71	0.0000E00
265.93	0.0000E00
266.14	0.0000E00
266.35	0.0000E00
266.57	0.0000E00
266.78	0.0000E00
267.00	0.0000E00
267.21	0.0000E00
267.43	0.0000E00
267.64	0.0000E00
267.85	0.0000E00
268.07	0.0000E00
268.28	0.0000E00
268.50	0.0000E00
268.71	0.0000E00
268.93	0.0000E00
269.14	0.0000E00
269.35	0.0000E00
269.57	0.0000E00
269.78	0.0000E00
270.00	0.0000E00
270.21	0.0000E00
270.43	0.0000E00
270.64	0.0000E00
270.85	0.0000E00
271.07	0.0000E00
271.28	0.0000E00
271.50	0.0000E00
271.71	0.0000E00
271.92	0.0000E00
272.14	0.0000E00
272.35	0.0000E00
272.57	0.0000E00
272.78	0.0000E00
272.99	0.0000E00
273.21	0.0000E00
273.42	0.0000E00
273.64	0.0000E00
273.85	0.0000E00
274.07	0.0000E00
274.28	0.0000E00
274.49	0.0000E00
274.71	0.0000E00
274.92	0.0000E00
275.13	0.0000E00
275.35	0.0000E00
275.56	0.0000E00
275.78	0.0000E00
275.99	0.0000E00
276.20	0.0000E00
276.42	0.0000E00
276.63	0.0000E00
276.85	0.0000E00
277.06	0.0000E00
277.27	0.0000E00
277.49	0.0000E00
277.70	0.0000E00
277.92	0.0000E00
278.13	0.0000E00
278.34	0.0000E00
278.56	0.0000E00
278.77	0.0000E00
278.98	0.0000E00
279.20	0.0000E00
279.41	0.0000E00
279.63	0.0000E00
279.84	0.0000E00
280.05	0.0000E00
280.27	0.0000E00
280.48	0.0000E00
280.69	0.0000E00
280.91	0.0000E00
281.12	0.0000E00
281.33	0.0000E00
281.55	0.0000E00
281.76	0.0000E00
281.98	0.0000E00
282.19	0.0000E00
282.40	0.0000E00
282.62	0.0000E00
282.83	0.0000E00
283.04	0.0000E00
283.26	0.0000E00
283.47	0.0000E00
283.68	0.0000E00
283.90	0.0000E00
284.11	0.0000E00
284.32	0.0000E00
284.54	0.0000E00
284.75	0.0000E00
284.96	0.0000E00
285.18	0.0000E00
285.39	0.0000E00
285.60	0.0000E00
285.82	0.0000E00
286.03	0.0000E00
286.24	0.0000E00
286.46	0.0000E00
286.67	0.0000E00
286.88	0.0000E00
287.10	0.0000E00
287.31	0.0000E00
287.52	0.0000E00
287.74	0.0000E00
287.95	0.0000E00
288.16	0.0000E00
288.38	0.0000E00
288.59	0.0000E00
288.80	0.0000E00
289.02	0.0000E00
289.23	0.0000E00
289.44	0.0000E00
289.66	0.0000E00
289.87	0.0000E00
290.08	0.0000E00
290.30	0.0000E00
290.51	0.0000E00
290.72	0.0000E00
290.94	0.0000E00
291.15	0.0000E00
291.36	0.0000E00
291.57	0.0000E00
291.79	0.0000E00
292.00	0.0000E00
292.21	0.0000E00
292.43	0.0000E00
292.64	0.0000E00
292.85	0.0000E00
293.07	0.0000E00
293.28	0.0000E00
293.49	0.0000E00
293.70	0.0000E00
293.92	0.0000E00
294.13	0.0000E00
294.34	0.0000E00
294.56	0.0000E00
294.77	0.0000E00
294.98	0.0000E00
295.20	0.0000E00
295.41	0.0000E00
295.62	0.0000E00
295.83	0.0000E00
296.05	0.0000E00
296.26	0.0000E00
296.47	0.0000E00
296.69	0.0000E00
296.90	0.0000E00
297.11	0.0000E00
297.32	0.0000E00
297.54	0.0000E00
297.75	0.0000E00
297.96	0.0000E00
298.17	0.0000E00
298.39	0.0000E00
298.60	0.0000E00
298.81	0.0000E00
299.03	0.0000E00
299.24	0.0000E00
299.45	0.0000E00
299.66	0.0000E00
299.88	0.0000E00
300.09	2.3600E-02
300.30	1.9877E-02
300.51	2.9954E-02
300.73	2.0455E-02
300.94	2.3315E-02
301.15	2.6805E-02
301.36	1.7580E-02
301.58	2.1129E-02
301.79	3.6447E-02
302.00	2.2068E-02
302.21	1.9889E-02
302.43	2.8948E-02
302.64	1.9777E-02
302.85	2.8648E-02
303.06	1.6957E-02
303.28	2.6092E-02
303.49	1.8772E-02
303.70	3.1595E-02
303.91	2.1436E-02
304.13	1.9418E-02
304.34	2.4549E-02
304.55	3.3857E-02
304.76	1.7233E-02
304.98	2.0706E-02
305.19	3.0373E-02
305.40	1.8316E-02
305.61	2.7405E-02
305.82	2.1303E-02
306.04	2.9541E-02
306.25	1.8059E-02
306.46	3.2261E-02
306.67	2.0573E-02
306.89	2.2314E-02
307.10	2.9637E-02
307.31	2.8123E-02
307.52	2.5222E-02
307.74	3.3113E-02
307.95	3.2445E-02
308.16	1.5598E-02
308.37	2.5829E-02
308.58	2.3469E-02
308.80	3.0560E-02
309.01	2.7620E-02
309.22	1.6218E-02
309.43	2.1078E-02
309.64	2.9815E-02
309.86	3.6399E-02
310.07	2.7220E-02
310.28	3.0821E-02
310.49	3.1894E-02
310.70	2.2687E-02
310.92	3.2646E-02
311.13	2.8115E-02
311.34	2.9858E-02
311.55	3.0657E-02
311.76	2.9006E-02
311.98	4.1924E-02
312.19	3.0223E-02
312.40	2.5534E-02
312.61	2.8743E-02
312.82	3.4964E-02
313.04	2.6557E-02
313.25	3.5046E-02
313.46	2.7444E-02
313.67	2.7701E-02
313.88	3.0468E-02
314.10	2.6538E-02
314.31	2.6999E-02
314.52	2.7890E-02
314.73	3.0250E-02
314.94	3.7478E-02
315.16	3.8798E-02
315.37	4.5839E-02
315.58	2.9388E-02
315.79	3.6905E-02
316.00	3.8531E-02
316.21	4.3537E-02
316.43	2.5843E-02
316.64	3.0192E-02
316.85	2.7731E-02
317.06	3.5856E-02
317.27	4.1063E-02
317.48	3.1723E-02
317.70	3.3943E-02
317.91	3.2374E-02
318.12	4.1263E-02
318.33	2.9121E-02
318.54	3.2230E-02
318.75	3.3927E-02
318.97	4.1816E-02
319.18	3.4570E-02
319.39	3.1852E-02
319.60	3.3614E-02
319.81	3.9477E-02
320.02	3.1259E-02
320.24	3.2039E-02
320.45	3.6948E-02
320.66	2.5731E-02
320.87	3.3424E-02
321.08	4.0988E-02
321.29	3.9684E-02
321.50	3.1851E-02
321.72	2.8675E-02
321.93	4.2565E-02
322.14	3.3296E-02
322.35	4.3247E-02
322.56	4.4149E-02
322.77	4.8060E-02
322.98	3.7061E-02
323.20	4.7656E-02
323.41	3.3215E-02
323.62	3.2014E-02
323.83	4.0901E-02
324.04	3.3277E-02
324.25	3.3200E-02
324.46	3.8598E-02
324.67	4.0609E-02
324.89	3.7994E-02
325.10	3.6210E-02
325.31	4.9119E-02
325.52	4.3115E-02
325.73	3.6002E-02
325.94	3.9083E-02
326.15	3.1252E-02
326.36	4.8362E-02
326.58	5.1995E-02
326.79	4.9980E-02
327.00	2.9127E-02
327.21	4.8338E-02
327.42	4.7753E-02
327.63	4.7746E-02
327.84	4.4184E-02
328.05	5.1689E-02
328.26	3.2204E-02
328.48	4.4361E-02
328.69	4.9163E-02
328.90	4.3402E-02
329.11	4.3441E-02
329.32	4.3170E-02
329.53	3.6987E-02
329.74	4.2508E-02
329.95	5.0337E-02
330.16	4.6749E-02
330.37	4.1513E-02
330.59	6.0514E-02
330.80	4.9322E-02
331.01	5.0612E-02
331.22	4.8778E-02
331.43	3.9803E-02
331.64	3.9108E-02
331.85	5.4919E-02
332.06	5.1996E-02
332.27	3.9188E-02
332.48	5.1010E-02
332.69	5.6379E-02
332.91	5.0140E-02
333.12	4.8508E-02
333.33	6.2467E-02
333.54	4.1567E-02
333.75	3.8110E-02
333.96	4.3531E-02
334.17	4.0937E-02
334.38	4.2534E-02
334.59	4.9843E-02
334.80	5.1570E-02
335.01	4.9329E-02
335.22	4.4028E-02
335.43	4.2147E-02
335.64	4.5490E-02
335.86	4.9266E-02
336.07	4.8888E-02
336.28	3.6260E-02
336.49	5.0415E-02
336.70	4.0246E-02
336.91	4.0545E-02
337.12	3.7410E-02
337.33	5.2785E-02
337.54	4.2340E-02
337.75	4.0283E-02
337.96	5.0884E-02
338.17	5.0025E-02
338.38	3.8856E-02
338.59	5.3133E-02
338.80	3.6903E-02
339.01	5.4785E-02
339.22	5.3077E-02
339.43	5.3766E-02
339.65	4.7151E-02
339.86	4.1718E-02
340.07	4.0646E-02
340.28	4.9379E-02
340.49	4.8775E-02
340.70	5.1149E-02
340.91	4.1260E-02
341.12	3.8056E-02
341.33	4.9192E-02
341.54	5.4692E-02
341.75	4.5857E-02
341.96	4.9415E-02
342.17	5.2432E-02
342.38	4.6002E-02
342.59	4.9591E-02
342.80	4.1050E-02
343.01	4.7040E-02
343.22	4.5877E-02
343.43	4.2795E-02
343.64	3.8919E-02
343.85	4.7513E-02
344.06	3.4364E-02
344.27	4.5877E-02
344.48	5.4549E-02
344.69	4.6396E-02
344.90	4.8524E-02
345.11	4.3736E-02
345.32	4.2186E-02
345.53	3.2860E-02
345.74	4.9104E-02
345.95	3.6138E-02
346.16	4.4309E-02
346.37	4.3862E-02
346.58	4.3768E-02
346.79	3.7625E-02
347.00	4.7988E-02
347.21	4.9135E-02
347.42	4.0650E-02
347.63	3.4445E-02
347.84	4.3662E-02
348.05	4.8706E-02
348.26	4.2401E-02
348.47	4.5701E-02
348.68	4.4539E-02
348.89	3.3248E-02
349.10	4.1944E-02
349.31	4.5011E-02
349.52	3.9607E-02
349.73	4.2636E-02
349.94	4.3696E-02
350.15	3.7033E-02
350.36	5.1383E-02
350.57	4.8144E-02
350.78	4.9560E-02
350.99	4.9668E-02
351.20	4.3327E-02
351.41	4.9263E-02
351.62	4.4195E-02
351.83	4.5412E-02
352.04	4.5404E-02
352.25	5.1488E-02
352.46	4.6794E-02
352.67	4.2671E-02
352.88	5.6340E-02
353.09	3.4288E-02
353.30	4.5135E-02
353.51	4.6815E-02
353.72	5.5470E-02
353.93	4.5521E-02
354.14	4.0945E-02
354.35	5.4662E-02
354.56	4.5552E-02
354.77	5.9056E-02
354.98	3.8436E-02
355.19	4.4968E-02
355.39	4.6521E-02
355.60	4.4032E-02
355.81	4.8784E-02
356.02	5.2007E-02
356.23	3.9818E-02
356.44	3.6737E-02
356.65	5.0425E-02
356.86	4.3427E-02
357.07	4.2541E-02
357.28	5.0822E-02
357.49	4.6500E-02
357.70	5.0924E-02
357.91	4.0087E-02
358.12	3.9638E-02
358.33	4.8511E-02
358.54	5.0844E-02
358.75	4.5198E-02
358.96	5.1590E-02
359.16	3.8310E-02
359.37	5.5327E-02
359.58	5.0362E-02
359.79	4.7357E-02
360.00	4.7751E-02
360.21	4.9929E-02
360.42	4.7891E-02
360.63	6.7287E-02
360.84	5.7816E-02
361.05	4.2053E-02
361.26	5.1762E-02
361.47	6.0195E-02
361.68	5.1211E-02
361.88	5.6719E-02
362.09	4.9472E-02
362.30	5.6124E-02
362.51	5.2874E-02
362.72	6.4730E-02
362.93	5.5124E-02
363.14	5.7690E-02
363.35	5.4762E-02
363.56	5.3030E-02
363.77	6.5232E-02
363.98	6.1585E-02
364.18	6.8047E-02
364.39	6.5649E-02
364.60	5.9957E-02
364.81	6.2273E-02
365.02	6.4377E-02
365.23	6.6428E-02
365.44	6.6141E-02
365.65	6.5050E-02
365.86	5.4860E-02
366.07	7.2801E-02
366.27	6.5957E-02
366.48	7.0184E-02
366.69	6.6447E-02
366.90	7.3551E-02
367.11	7.0323E-02
367.32	7.1926E-02
367.53	6.5691E-02
367.74	6.1959E-02
367.95	6.2130E-02
368.15	6.5462E-02
368.36	7.0879E-02
368.57	5.7897E-02
368.78	7.6993E-02
368.99	6.5401E-02
369.20	6.4351E-02
369.41	7.0944E-02
369.62	6.6882E-02
369.82	7.6467E-02
370.03	6.7856E-02
370.24	7.0837E-02
370.45	6.6233E-02
370.66	6.0464E-02
370.87	6.1202E-02
371.08	6.3497E-02
371.28	6.3647E-02
371.49	6.4287E-02
371.70	6.3541E-02
371.91	6.4469E-02
372.12	5.8564E-02
372.33	5.8881E-02
372.54	6.4717E-02
372.74	6.3001E-02
372.95	5.1597E-02
373.16	6.5395E-02
373.37	6.7366E-02
373.58	5.2501E-02
373.79	6.5005E-02
374.00	6.0511E-02
374.20	7.0719E-02
374.41	6.8304E-02
374.62	6.2155E-02
374.83	6.1611E-02
375.04	6.4120E-02
375.25	6.5730E-02
375.45	5.1037E-02
375.66	6.7790E-02
375.87	6.6173E-02
376.08	7.0629E-02
376.29	6.9343E-02
376.50	6.7966E-02
376.70	6.6323E-02
376.91	7.1370E-02
377.12	7.2212E-02
377.33	6.1211E-02
377.54	6.4296E-02
377.75	7.3023E-02
377.95	6.6529E-02
378.16	6.9542E-02
378.37	6.3389E-02
378.58	7.2967E-02
378.79	5.9097E-02
379.00	7.3907E-02
379.20	6.4590E-02
379.41	6.8765E-02
379.62	7.0652E-02
379.83	6.5085E-02
380.04	6.7324E-02
380.24	6.2889E-02
380.45	5.6191E-02
380.66	5.8475E-02
380.87	6.3066E-02
381.08	6.4102E-02
381.28	5.6577E-02
381.49	6.3331E-02
381.70	5.5318E-02
381.91	5.8048E-02
382.12	6.2373E-02
382.32	5.6213E-02
382.53	6.1734E-02
382.74	5.3349E-02
382.95	5.7464E-02
383.16	6.0724E-02
383.36	4.8843E-02
383.57	5.9981E-02
383.78	6.4216E-02
383.99	5.6230E-02
384.20	5.9090E-02
384.40	6.0150E-02
384.61	6.6682E-02
384.82	6.9541E-02
385.03	6.3606E-02
385.23	6.6366E-02
385.44	6.7149E-02
385.65	7.0538E-02
385.86	6.1677E-02
386.07	7.9059E-02
386.27	5.8403E-02
386.48	6.6867E-02
386.69	7.1943E-02
386.90	5.4241E-02
387.10	6.5304E-02
387.31	7.2324E-02
387.52	6.5207E-02
387.73	6.9675E-02
387.94	7.4987E-02
388.14	6.2114E-02
388.35	6.7330E-02
388.56	8.3392E-02
388.77	7.5588E-02
388.97	7.6145E-02
389.18	8.1468E-02
389.39	7.1685E-02
389.60	7.3841E-02
389.80	8.0698E-02
390.01	7.7603E-02
390.22	7.6989E-02
390.43	6.6258E-02
390.63	6.9692E-02
390.84	6.9220E-02
391.05	8.0936E-02
391.26	7.0942E-02
391.46	6.9170E-02
391.67	6.9466E-02
391.88	6.0565E-02
392.09	6.0308E-02
392.29	7.1640E-02
392.50	6.3350E-02
392.71	6.7121E-02
392.92	6.8594E-02
393.12	6.6962E-02
393.33	7.1916E-02
393.54	6.4427E-02
393.74	5.9119E-02
393.95	6.3515E-02
394.16	7.2106E-02
394.37	6.5671E-02
394.57	6.6392E-02
394.78	7.2170E-02
394.99	6.8265E-02
395.19	6.7575E-02
395.40	6.7190E-02
395.61	6.6817E-02
395.82	7.5150E-02
396.02	6.9290E-02
396.23	7.6533E-02
396.44	7.8271E-02
396.65	7.3997E-02
396.85	8.2271E-02
397.06	7.9127E-02
397.27	8.3036E-02
397.47	8.8124E-02
397.68	8.3198E-02
397.89	8.0693E-02
398.09	7.9455E-02
398.30	8.6667E-02
398.51	8.0870E-02
398.72	8.8487E-02
398.92	9.5832E-02
399.13	9.6994E-02
399.34	1.0221E-01
399.54	1.0322E-01
399.75	9.9793E-02
399.96	9.3749E-02
400.16	9.3790E-02
400.37	1.0146E-01
400.58	9.9622E-02
400.78	1.0212E-01
400.99	9.8263E-02
401.20	1.0592E-01
401.41	1.0278E-01
401.61	9.5998E-02
401.82	1.0245E-01
402.03	9.6821E-02
402.23	9.6151E-02
402.44	1.0492E-01
402.65	9.9679E-02
402.85	1.0056E-01
403.06	1.0117E-01
403.27	1.0403E-01
403.47	1.0263E-01
403.68	9.7690E-02
403.89	1.0430E-01
404.09	9.9662E-02
404.30	9.4539E-02
404.51	1.0579E-01
404.71	1.0473E-01
404.92	1.1037E-01
405.13	9.4004E-02
405.33	9.9744E-02
405.54	1.0118E-01
405.75	1.0428E-01
405.95	1.0223E-01
406.16	9.2924E-02
406.37	1.0342E-01
406.57	1.0437E-01
406.78	1.0668E-01
406.99	1.0491E-01
407.19	1.0844E-01
407.40	1.1231E-01
407.60	1.0872E-01
407.81	1.0699E-01
408.02	1.0043E-01
408.22	1.0268E-01
408.43	1.1059E-01
408.64	1.0735E-01
408.84	1.0573E-01
409.05	9.8076E-02
409.26	1.1020E-01
409.46	1.1279E-01
409.67	1.0513E-01
409.87	1.0975E-01
410.08	1.0745E-01
410.29	1.1662E-01
410.49	1.0134E-01
410.70	1.1198E-01
410.91	1.0891E-01
411.11	1.1562E-01
411.32	1.1223E-01
411.52	1.0451E-01
411.73	1.1568E-01
411.94	1.1440E-01
412.14	1.1676E-01
412.35	1.1063E-01
412.56	1.1744E-01
412.76	1.1625E-01
412.97	1.1092E-01
413.17	1.1473E-01
413.38	1.1966E-01
413.59	1.1029E-01
413.79	1.1346E-01
414.00	1.1675E-01
414.20	1.1892E-01
414.41	1.0899E-01
414.62	1.1642E-01
414.82	1.1152E-01
415.03	1.0612E-01
415.23	1.1657E-01
415.44	1.0744E-01
415.65	1.1414E-01
415.85	1.0720E-01
416.06	1.1572E-01
416.26	1.1315E-01
416.47	1.1496E-01
416.68	1.1922E-01
416.88	1.2213E-01
417.09	1.0369E-01
417.29	1.1315E-01
417.50	1.1687E-01
417.71	1.1511E-01
417.91	1.1262E-01
418.12	1.1102E-01
418.32	1.1893E-01
418.53	1.1870E-01
418.73	1.1244E-01
418.94	1.1298E-01
419.15	1.1229E-01
419.35	1.2302E-01
419.56	1.1767E-01
419.76	1.0988E-01
419.97	1.2385E-01
420.17	1.1883E-01
420.38	1.0762E-01
420.59	1.2241E-01
420.79	1.2370E-01
421.00	1.1697E-01
421.20	1.0715E-01
421.41	1.1514E-01
421.61	1.1316E-01
421.82	1.1792E-01
422.02	1.1567E-01
422.23	1.0391E-01
422.44	1.2261E-01
422.64	1.1260E-01
422.85	1.1388E-01
423.05	1.1492E-01
423.26	1.1667E-01
423.46	1.1461E-01
423.67	1.1195E-01
423.87	1.1232E-01
424.08	1.1000E-01
424.29	1.1014E-01
424.49	1.1700E-01
424.70	1.0535E-01
424.90	1.1423E-01
425.11	1.1441E-01
425.31	1.1255E-01
425.52	1.1577E-01
425.72	1.0877E-01
425.93	1.1154E-01
426.13	1.0668E-01
426.34	1.0810E-01
426.54	1.0782E-01
426.75	1.0931E-01
426.95	1.0870E-01
427.16	1.1041E-01
427.36	1.0885E-01
427.57	1.0393E-01
427.78	1.0241E-01
427.98	1.0268E-01
428.19	1.0483E-01
428.39	1.0018E-01
428.60	1.0144E-01
428.80	1.0277E-01
429.01	1.0678E-01
429.21	9.6296E-02
429.42	1.1188E-01
429.62	1.0987E-01
429.83	1.0520E-01
430.03	9.9283E-02
430.24	1.0882E-01
430.44	1.0110E-01
430.65	1.0719E-01
430.85	1.0880E-01
431.06	1.0337E-01
431.26	1.1223E-01
431.47	1.0118E-01
431.67	1.1763E-01
431.88	1.1312E-01
432.08	1.1620E-01
432.29	1.1685E-01
432.49	1.1184E-01
432.70	1.1215E-01
432.90	1.2223E-01
433.11	1.2086E-01
433.31	1.0900E-01
433.52	1.1851E-01
433.72	1.1544E-01
433.93	1.1912E-01
434.13	1.1821E-01
434.34	1.2823E-01
434.54	1.1721E-01
434.74	1.2029E-01
434.95	1.2251E-01
435.15	1.2038E-01
435.36	1.2321E-01
435.56	1.1807E-01
435.77	1.2572E-01
435.97	1.1879E-01
436.18	1.3663E-01
436.38	1.2761E-01
436.59	1.2233E-01
436.79	1.2924E-01
437.00	1.2675E-01
437.20	1.2319E-01
437.41	1.2211E-01
437.61	1.2526E-01
437.81	1.2460E-01
438.02	1.2420E-01
438.22	1.2758E-01
438.43	1.1973E-01
438.63	1.3283E-01
438.84	1.2346E-01
439.04	1.2464E-01
439.25	1.2715E-01
439.45	1.2172E-01
439.66	1.2294E-01
439.86	1.2464E-01
440.06	1.3445E-01
440.27	1.2466E-01
440.47	1.2009E-01
440.68	1.3230E-01
440.88	1.2897E-01
441.09	1.3465E-01
441.29	1.3418E-01
441.49	1.3371E-01
441.70	1.3955E-01
441.90	1.3568E-01
442.11	1.3831E-01
442.31	1.4229E-01
442.52	1.3546E-01
442.72	1.3578E-01
442.92	1.2979E-01
443.13	1.3923E-01
443.33	1.2816E-01
443.54	1.3605E-01
443.74	1.3537E-01
443.95	1.4102E-01
444.15	1.3762E-01
444.35	1.4273E-01
444.56	1.3790E-01
444.76	1.3396E-01
444.97	1.4775E-01
445.17	1.4269E-01
445.37	1.4996E-01
445.58	1.3792E-01
445.78	1.4104E-01
445.99	1.3444E-01
446.19	1.3471E-01
446.39	1.3739E-01
446.60	1.3366E-01
446.80	1.3424E-01
447.01	1.4246E-01
447.21	1.4817E-01
447.41	1.3822E-01
447.62	1.4732E-01
447.82	1.4345E-01
448.03	1.4645E-01
448.23	1.4606E-01
448.43	1.4783E-01
448.64	1.4963E-01
448.84	1.4876E-01
449.05	1.4558E-01
449.25	1.5064E-01
449.45	1.4464E-01
449.66	1.4747E-01
449.86	1.4895E-01
450.07	1.4310E-01
450.27	1.4863E-01
450.47	1.4593E-01
450.68	1.4865E-01
450.88	1.4482E-01
451.08	1.4761E-01
451.29	1.5032E-01
451.49	1.5073E-01
451.70	1.4948E-01
451.90	1.5140E-01
452.10	1.5076E-01
452.31	1.4335E-01
452.51	1.5198E-01
452.71	1.5027E-01
452.92	1.4869E-01
453.12	1.5389E-01
453.32	1.4866E-01
453.53	1.3904E-01
453.73	1.4117E-01
453.93	1.4231E-01
454.14	1.5348E-01
454.34	1.5122E-01
454.55	1.5342E-01
454.75	1.5112E-01
454.95	1.4670E-01
455.16	1.5745E-01
455.36	1.4896E-01
455.56	1.5879E-01
455.77	1.5582E-01
455.97	1.5265E-01
456.17	1.4986E-01
456.38	1.5370E-01
456.58	1.5890E-01
456.78	1.5132E-01
456.99	1.4473E-01
457.19	1.5039E-01
457.39	1.4970E-01
457.60	1.5267E-01
457.80	1.5112E-01
458.00	1.4902E-01
458.21	1.5588E-01
458.41	1.5405E-01
458.61	1.4972E-01
458.82	1.4963E-01
459.02	1.4649E-01
459.22	1.5858E-01
459.43	1.5586E-01
459.63	1.5303E-01
459.83	1.4966E-01
460.03	1.5322E-01
460.24	1.5702E-01
460.44	1.5032E-01
460.64	1.4671E-01
460.85	1.5439E-01
461.05	1.5307E-01
461.25	1.5432E-01
461.46	1.5142E-01
461.66	1.4855E-01
461.86	1.5404E-01
462.07	1.5714E-01
462.27	1.5441E-01
462.47	1.5896E-01
462.67	1.5343E-01
462.88	1.5660E-01
463.08	1.4775E-01
463.28	1.5395E-01
463.49	1.5820E-01
463.69	1.5409E-01
463.89	1.5547E-01
464.09	1.5586E-01
464.30	1.5102E-01
464.50	1.5612E-01
464.70	1.5740E-01
464.91	1.4570E-01
465.11	1.4722E-01
465.31	1.4782E-01
465.51	1.5344E-01
465.72	1.5085E-01
465.92	1.5043E-01
466.12	1.4596E-01
466.33	1.5217E-01
466.53	1.5009E-01
466.73	1.4710E-01
466.93	1.5233E-01
467.14	1.4623E-01
467.34	1.5875E-01
467.54	1.5256E-01
467.74	1.5348E-01
467.95	1.5205E-01
468.15	1.4929E-01
468.35	1.5405E-01
468.55	1.5705E-01
468.76	1.5686E-01
468.96	1.4537E-01
469.16	1.5374E-01
469.37	1.5286E-01
469.57	1.5417E-01
469.77	1.4983E-01
469.97	1.5409E-01
470.18	1.5695E-01
470.38	1.5831E-01
470.58	1.5428E-01
470.78	1.5660E-01
470.99	1.5523E-01
471.19	1.5194E-01
471.39	1.5591E-01
471.59	1.4980E-01
471.79	1.5316E-01
472.00	1.5446E-01
472.20	1.5707E-01
472.40	1.5197E-01
472.60	1.5198E-01
472.81	1.5979E-01
473.01	1.5757E-01
473.21	1.5300E-01
473.41	1.4603E-01
473.62	1.5738E-01
473.82	1.5989E-01
474.02	1.5264E-01
474.22	1.5337E-01
474.42	1.6221E-01
474.63	1.5663E-01
474.83	1.5384E-01
475.03	1.5467E-01
475.23	1.5667E-01
475.44	1.5350E-01
475.64	1.5469E-01
475.84	1.5633E-01
476.04	1.5416E-01
476.24	1.5498E-01
476.45	1.5593E-01
476.65	1.5293E-01
476.85	1.5191E-01
477.05	1.5634E-01
477.25	1.5852E-01
477.46	1.5512E-01
477.66	1.5424E-01
477.86	1.5818E-01
478.06	1.5831E-01
478.26	1.5862E-01
478.47	1.5670E-01
478.67	1.6247E-01
478.87	1.5565E-01
479.07	1.5196E-01
479.27	1.5660E-01
479.47	1.5860E-01
479.68	1.5782E-01
479.88	1.5874E-01
480.08	1.5764E-01
480.28	1.5893E-01
480.48	1.5856E-01
480.69	1.5950E-01
480.89	1.5698E-01
481.09	1.5779E-01
481.29	1.6271E-01
481.49	1.4932E-01
481.69	1.5884E-01
481.90	1.5581E-01
482.10	1.5723E-01
482.30	1.6023E-01
482.50	1.5734E-01
482.70	1.5348E-01
482.90	1.5371E-01
483.11	1.5382E-01
483.31	1.5375E-01
483.51	1.4665E-01
483.71	1.4784E-01
483.91	1.4868E-01
484.11	1.4847E-01
484.32	1.4820E-01
484.52	1.4963E-01
484.72	1.4872E-01
484.92	1.4792E-01
485.12	1.4695E-01
485.32	1.4588E-01
485.52	1.4530E-01
485.73	1.4133E-01
485.93	1.4045E-01
486.13	1.4142E-01
486.33	1.4290E-01
486.53	1.4549E-01
486.73	1.4637E-01
486.93	1.4536E-01
487.14	1.5096E-01
487.34	1.5001E-01
487.54	1.4992E-01
487.74	1.5250E-01
487.94	1.4509E-01
488.14	1.5097E-01
488.34	1.5082E-01
488.54	1.5043E-01
488.75	1.5013E-01
488.95	1.5172E-01
489.15	1.5074E-01
489.35	1.4980E-01
489.55	1.5066E-01
489.75	1.5307E-01
489.95	1.5175E-01
490.15	1.5211E-01
490.36	1.5441E-01
490.56	1.5267E-01
490.76	1.5605E-01
490.96	1.5469E-01
491.16	1.5524E-01
491.36	1.5392E-01
491.56	1.5334E-01
491.76	1.4857E-01
491.96	1.5442E-01
492.17	1.5358E-01
492.37	1.5591E-01
492.57	1.5782E-01
492.77	1.5786E-01
492.97	1.6102E-01
493.17	1.5853E-01
493.37	1.5762E-01
493.57	1.5680E-01
493.77	1.5654E-01
493.97	1.6092E-01
494.17	1.5723E-01
494.38	1.5824E-01
494.58	1.5596E-01
494.78	1.5648E-01
494.98	1.5614E-01
495.18	1.5875E-01
495.38	1.5823E-01
495.58	1.5976E-01
495.78	1.5977E-01
495.98	1.6144E-01
496.18	1.6032E-01
496.38	1.5714E-01
496.58	1.5343E-01
496.78	1.5984E-01
496.99	1.5509E-01
497.19	1.5866E-01
497.39	1.5994E-01
497.59	1.5758E-01
497.79	1.5402E-01
497.99	1.5745E-01
498.19	1.5824E-01
498.39	1.5882E-01
498.59	1.5541E-01
498.79	1.5464E-01
498.99	1.5449E-01
499.19	1.5677E-01
499.39	1.5715E-01
499.59	1.5465E-01
499.79	1.5486E-01
499.99	1.5458E-01
500.19	1.5802E-01
500.40	1.5490E-01
500.60	1.5760E-01
500.80	1.5679E-01
501.00	1.5541E-01
501.20	1.5426E-01
501.40	1.5879E-01
501.60	1.5573E-01
501.80	1.5583E-01
502.00	1.5842E-01
502.20	1.5659E-01
502.40	1.5699E-01
502.60	1.5384E-01
502.80	1.6110E-01
503.00	1.5925E-01
503.20	1.5696E-01
503.40	1.5569E-01
503.60	1.5757E-01
503.80	1.6127E-01
504.00	1.5914E-01
504.20	1.6203E-01
504.40	1.6117E-01
504.60	1.6365E-01
504.80	1.6361E-01
505.00	1.6278E-01
505.20	1.6570E-01
505.40	1.6370E-01
505.60	1.6293E-01
505.80	1.6488E-01
506.00	1.6495E-01
506.20	1.6360E-01
506.40	1.6379E-01
506.60	1.6388E-01
506.80	1.6160E-01
507.00	1.6425E-01
507.20	1.6565E-01
507.40	1.6797E-01
507.60	1.6460E-01
507.80	1.6638E-01
508.00	1.6687E-01
508.20	1.7020E-01
508.40	1.6825E-01
508.60	1.6548E-01
508.80	1.6367E-01
509.00	1.7144E-01
509.20	1.6855E-01
509.40	1.6726E-01
509.60	1.6921E-01
509.80	1.6744E-01
510.00	1.7179E-01
510.20	1.7087E-01
510.40	1.7212E-01
510.60	1.6910E-01
510.80	1.6774E-01
511.00	1.6758E-01
511.20	1.7336E-01
511.40	1.6936E-01
511.60	1.6977E-01
511.80	1.7090E-01
512.00	1.7073E-01
512.20	1.7245E-01
512.40	1.6978E-01
512.60	1.7086E-01
512.80	1.7109E-01
513.00	1.7357E-01
513.20	1.7230E-01
513.40	1.7020E-01
513.59	1.6868E-01
513.79	1.7192E-01
513.99	1.7060E-01
514.19	1.7154E-01
514.39	1.6942E-01
514.59	1.7205E-01
514.79	1.6955E-01
514.99	1.6940E-01
515.19	1.7105E-01
515.39	1.7176E-01
515.59	1.7261E-01
515.79	1.6802E-01
515.99	1.7418E-01
516.19	1.7342E-01
516.39	1.7247E-01
516.59	1.7402E-01
516.79	1.7717E-01
516.98	1.7252E-01
517.18	1.7771E-01
517.38	1.7750E-01
517.58	1.7839E-01
517.78	1.7878E-01
517.98	1.7996E-01
518.18	1.8165E-01
518.38	1.8796E-01
518.58	1.8480E-01
518.78	1.8526E-01
518.98	1.8668E-01
519.18	1.8961E-01
519.38	1.9332E-01
519.57	1.9328E-01
519.77	1.9152E-01
519.97	1.9602E-01
520.17	1.9615E-01
520.37	1.9704E-01
520.57	2.0005E-01
520.77	2.0179E-01
520.97	2.0214E-01
521.17	2.0199E-01
521.37	2.0569E-01
521.57	2.0842E-01
521.76	2.0602E-01
521.96	2.0961E-01
522.16	2.0885E-01
522.36	2.1375E-01
522.56	2.0830E-01
522.76	2.1168E-01
522.96	2.1587E-01
523.16	2.1363E-01
523.36	2.1684E-01
523.55	2.1347E-01
523.75	2.1506E-01
523.95	2.1585E-01
524.15	2.1353E-01
524.35	2.1556E-01
524.55	2.1636E-01
524.75	2.1866E-01
524.95	2.2000E-01
525.14	2.1823E-01
525.34	2.1731E-01
525.54	2.1494E-01
525.74	2.1824E-01
525.94	2.1928E-01
526.14	2.2344E-01
526.34	2.2339E-01
526.54	2.2675E-01
526.73	2.2202E-01
526.93	2.2733E-01
527.13	2.2865E-01
527.33	2.2987E-01
527.53	2.3263E-01
527.73	2.3061E-01
527.93	2.3432E-01
528.12	2.3003E-01
528.32	2.3332E-01
528.52	2.3822E-01
528.72	2.4070E-01
528.92	2.3863E-01
529.12	2.3882E-01
529.32	2.4093E-01
529.51	2.4311E-01
529.71	2.4387E-01
529.91	2.4425E-01
530.11	2.4714E-01
530.31	2.5069E-01
530.51	2.4616E-01
530.70	2.4619E-01
530.90	2.4967E-01
531.10	2.4805E-01
531.30	2.5054E-01
531.50	2.5031E-01
531.70	2.5154E-01
531.89	2.4836E-01
532.09	2.4919E-01
532.29	2.4914E-01
532.49	2.5372E-01
532.69	2.5271E-01
532.88	2.5215E-01
533.08	2.5008E-01
533.28	2.5358E-01
533.48	2.5786E-01
533.68	2.5584E-01
533.88	2.6104E-01
534.07	2.5997E-01
534.27	2.6002E-01
534.47	2.6250E-01
534.67	2.5688E-01
534.87	2.6244E-01
535.06	2.6265E-01
535.26	2.6084E-01
535.46	2.5996E-01
535.66	2.6816E-01
535.86	2.6261E-01
536.05	2.6250E-01
536.25	2.6460E-01
536.45	2.6548E-01
536.65	2.6497E-01
536.85	2.6315E-01
537.04	2.6575E-01
537.24	2.6941E-01
537.44	2.6058E-01
537.64	2.5855E-01
537.83	2.6538E-01
538.03	2.6659E-01
538.23	2.6968E-01
538.43	2.6832E-01
538.63	2.6371E-01
538.82	2.6633E-01
539.02	2.6673E-01
539.22	2.6934E-01
539.42	2.6548E-01
539.61	2.6859E-01
539.81	2.6943E-01
540.01	2.6603E-01
540.21	2.6902E-01
540.41	2.6800E-01
540.60	2.6973E-01
540.80	2.6995E-01
541.00	2.7062E-01
541.20	2.7491E-01
541.39	2.7490E-01
541.59	2.7475E-01
541.79	2.7639E-01
541.99	2.8051E-01
542.18	2.7858E-01
542.38	2.7844E-01
542.58	2.7854E-01
542.78	2.8093E-01
542.97	2.7654E-01
543.17	2.8184E-01
543.37	2.7897E-01
543.57	2.8515E-01
543.76	2.8921E-01
543.96	2.8740E-01
544.16	2.8331E-01
544.36	2.8610E-01
544.55	2.9168E-01
544.75	2.8862E-01
544.95	2.9202E-01
545.14	2.8368E-01
545.34	2.9203E-01
545.54	2.8768E-01
545.74	2.8962E-01
545.93	2.9341E-01
546.13	2.9253E-01
546.33	2.8928E-01
546.53	2.8839E-01
546.72	2.9531E-01
546.92	2.9525E-01
547.12	2.9238E-01
547.31	2.9493E-01
547.51	2.9308E-01
547.71	2.9804E-01
547.91	2.9813E-01
548.10	2.9170E-01
548.30	2.9503E-01
548.50	3.0137E-01
548.69	2.9953E-01
548.89	2.9868E-01
549.09	2.9916E-01
549.29	2.9784E-01
549.48	3.0686E-01
549.68	2.9743E-01
549.88	3.0379E-01
550.07	3.0571E-01
550.27	3.0463E-01
550.47	2.8626E-01
550.66	3.1064E-01
550.86	3.0063E-01
551.06	3.1125E-01
551.25	3.0459E-01
551.45	3.1189E-01
551.65	3.1275E-01
551.85	3.1565E-01
552.04	3.0410E-01
552.24	3.1125E-01
552.44	3.0789E-01
552.63	3.0760E-01
552.83	3.1231E-01
553.03	3.0717E-01
553.22	3.1700E-01
553.42	3.1082E-01
553.62	3.1907E-01
553.81	3.1170E-01
554.01	3.1646E-01
554.21	3.1050E-01
554.40	3.1503E-01
554.60	3.1319E-01
554.80	3.1626E-01
554.99	3.1559E-01
555.19	3.1466E-01
555.39	3.1631E-01
555.58	3.1214E-01
555.78	3.1389E-01
555.98	3.1281E-01
556.17	3.1327E-01
556.37	3.1506E-01
556.56	3.1553E-01
556.76	3.1552E-01
556.96	3.1206E-01
557.15	3.1438E-01
557.35	3.1236E-01
557.55	3.1227E-01
557.74	3.1158E-01
557.94	3.1511E-01
558.14	3.1689E-01
558.33	3.1122E-01
558.53	3.1018E-01
558.73	3.1388E-01
558.92	3.0968E-01
559.12	3.1815E-01
559.31	3.1979E-01
559.51	3.2290E-01
559.71	3.1709E-01
559.90	3.2050E-01
560.10	3.2041E-01
560.30	3.1992E-01
560.49	3.1736E-01
560.69	3.2154E-01
560.88	3.2475E-01
561.08	3.1609E-01
561.28	3.1767E-01
561.47	3.2216E-01
561.67	3.2279E-01
561.86	3.1997E-01
562.06	3.2260E-01
562.26	3.2533E-01
562.45	3.2193E-01
562.65	3.2493E-01
562.84	3.1843E-01
563.04	3.2141E-01
563.24	3.2068E-01
563.43	3.2575E-01
563.63	3.2610E-01
563.82	3.2284E-01
564.02	3.2659E-01
564.22	3.2819E-01
564.41	3.2123E-01
564.61	3.2519E-01
564.80	3.2637E-01
565.00	3.2302E-01
565.20	3.2924E-01
565.39	3.2179E-01
565.59	3.1941E-01
565.78	3.2484E-01
565.98	3.1899E-01
566.18	3.2791E-01
566.37	3.2468E-01
566.57	3.2242E-01
566.76	3.2084E-01
566.96	3.2816E-01
567.15	3.2275E-01
567.35	3.3116E-01
567.55	3.2614E-01
567.74	3.2675E-01
567.94	3.2346E-01
568.13	3.2733E-01
568.33	3.3109E-01
568.52	3.3055E-01
568.72	3.2628E-01
568.91	3.2447E-01
569.11	3.2566E-01
569.31	3.3171E-01
569.50	3.2411E-01
569.70	3.2844E-01
569.89	3.2683E-01
570.09	3.2590E-01
570.28	3.2384E-01
570.48	3.2658E-01
570.67	3.3208E-01
570.87	3.2439E-01
571.07	3.2399E-01
571.26	3.2975E-01
571.46	3.2844E-01
571.65	3.3079E-01
571.85	3.3310E-01
572.04	3.3054E-01
572.24	3.3616E-01
572.43	3.3052E-01
572.63	3.3569E-01
572.82	3.3146E-01
573.02	3.3630E-01
573.21	3.3177E-01
573.41	3.3472E-01
573.60	3.3873E-01
573.80	3.3653E-01
573.99	3.3442E-01
574.19	3.3990E-01
574.38	3.3607E-01
574.58	3.3827E-01
574.78	3.3262E-01
574.97	3.3903E-01
575.17	3.3726E-01
575.36	3.3487E-01
575.56	3.3213E-01
575.75	3.4097E-01
575.95	3.3596E-01
576.14	3.3359E-01
576.34	3.4095E-01
576.53	3.3476E-01
576.73	3.3619E-01
576.92	3.3192E-01
577.12	3.4144E-01
577.31	3.2935E-01
577.51	3.4228E-01
577.70	3.3777E-01
577.90	3.3800E-01
578.09	3.4079E-01
578.29	3.3616E-01
578.48	3.4347E-01
578.68	3.3925E-01
578.87	3.4825E-01
579.06	3.3894E-01
579.26	3.4345E-01
579.45	3.3961E-01
579.65	3.4954E-01
579.84	3.4273E-01
580.04	3.4706E-01
580.23	3.4942E-01
580.43	3.3998E-01
580.62	3.4675E-01
580.82	3.4765E-01
581.01	3.4579E-01
581.21	3.4586E-01
581.40	3.4391E-01
581.60	3.5120E-01
581.79	3.5329E-01
581.99	3.4766E-01
582.18	3.4853E-01
582.37	3.5250E-01
582.57	3.5192E-01
582.76	3.5579E-01
582.96	3.5664E-01
583.15	3.5545E-01
583.35	3.5503E-01
583.54	3.5589E-01
583.74	3.5472E-01
583.93	3.5094E-01
584.12	3.4795E-01
584.32	3.5744E-01
584.51	3.5321E-01
584.71	3.4709E-01
584.90	3.4879E-01
585.10	3.4953E-01
585.29	3.4996E-01
585.49	3.5074E-01
585.68	3.5261E-01
585.87	3.4919E-01
586.07	3.4793E-01
586.26	3.4625E-01
586.46	3.4596E-01
586.65	3.4379E-01
586.85	3.4584E-01
587.04	3.3651E-01
587.23	3.4508E-01
587.43	3.4296E-01
587.62	3.3262E-01
587.82	3.4198E-01
588.01	3.3662E-01
588.20	3.3791E-01
588.40	3.3323E-01
588.59	3.3815E-01
588.79	3.3931E-01
588.98	3.4250E-01
589.18	3.3837E-01
589.37	3.4312E-01
589.56	3.3664E-01
589.76	3.3463E-01
589.95	3.4519E-01
590.15	3.4153E-01
590.34	3.3731E-01
590.53	3.4659E-01
590.73	3.4196E-01
590.92	3.4269E-01
591.11	3.4747E-01
591.31	3.4825E-01
591.50	3.5132E-01
591.70	3.4871E-01
591.89	3.5493E-01
592.08	3.4758E-01
592.28	3.4572E-01
592.47	3.5507E-01
592.67	3.5426E-01
592.86	3.5461E-01
593.05	3.4828E-01
593.25	3.5650E-01
593.44	3.5325E-01
593.63	3.6012E-01
593.83	3.5409E-01
594.02	3.6360E-01
594.22	3.6285E-01
594.41	3.6706E-01
594.60	3.6148E-01
594.80	3.6312E-01
594.99	3.6402E-01
595.18	3.6476E-01
595.38	3.6303E-01
595.57	3.6572E-01
595.76	3.6767E-01
595.96	3.6636E-01
596.15	3.6083E-01
596.34	3.7583E-01
596.54	3.7390E-01
596.73	3.7022E-01
596.93	3.7439E-01
597.12	3.7047E-01
597.31	3.7499E-01
597.51	3.7223E-01
597.70	3.7408E-01
597.89	3.7204E-01
598.09	3.7005E-01
598.28	3.8268E-01
598.47	3.7217E-01
598.67	3.7420E-01
598.86	3.7007E-01
599.05	3.8020E-01
599.25	3.7582E-01
599.44	3.7919E-01
599.63	3.8338E-01
599.83	3.7754E-01
600.02	3.7894E-01
600.21	3.7914E-01
600.41	3.8176E-01
600.60	3.7543E-01
600.79	3.8174E-01
600.98	3.8155E-01
601.18	3.8888E-01
601.37	3.7916E-01
601.56	3.8125E-01
601.76	3.9375E-01
601.95	3.8270E-01
602.14	3.8551E-01
602.34	3.8568E-01
602.53	3.9318E-01
602.72	3.8595E-01
602.92	3.9191E-01
603.11	3.8881E-01
603.30	3.9378E-01
603.49	3.8965E-01
603.69	3.9879E-01
603.88	3.9350E-01
604.07	3.9810E-01
604.27	3.9470E-01
604.46	3.8911E-01
604.65	3.9544E-01
604.84	3.9420E-01
605.04	3.9845E-01
605.23	3.9617E-01
605.42	3.9639E-01
605.62	3.9884E-01
605.81	3.9421E-01
606.00	3.9504E-01
606.19	3.9952E-01
606.39	3.9938E-01
606.58	3.9396E-01
606.77	3.9629E-01
606.97	3.9192E-01
607.16	3.9856E-01
607.35	4.0129E-01
607.54	3.9696E-01
607.74	4.0363E-01
607.93	4.0463E-01
608.12	3.9667E-01
608.31	4.0015E-01
608.51	4.0229E-01
608.70	3.9849E-01
608.89	3.9754E-01
609.08	3.9436E-01
609.28	4.0001E-01
609.47	4.0121E-01
609.66	4.0257E-01
609.85	4.0361E-01
610.05	4.0573E-01
610.24	3.9940E-01
610.43	4.0314E-01
610.62	4.0075E-01
610.82	3.9883E-01
611.01	4.0384E-01
611.20	4.0185E-01
611.39	4.0199E-01
611.59	4.0185E-01
611.78	4.0544E-01
611.97	4.0389E-01
612.16	4.1029E-01
612.35	4.0138E-01
612.55	4.0209E-01
612.74	4.0662E-01
612.93	4.0562E-01
613.12	3.9834E-01
613.32	4.0258E-01
613.51	4.0483E-01
613.70	4.0421E-01
613.89	4.0526E-01
614.08	4.0677E-01
614.28	4.0544E-01
614.47	4.0261E-01
614.66	4.0525E-01
614.85	4.0946E-01
615.04	4.0770E-01
615.24	4.1358E-01
615.43	4.0784E-01
615.62	4.0554E-01
615.81	4.0623E-01
616.00	3.9873E-01
616.20	4.0749E-01
616.39	4.0943E-01
616.58	4.1084E-01
616.77	4.1186E-01
616.96	4.2151E-01
617.16	4.2084E-01
617.35	4.1996E-01
617.54	4.1622E-01
617.73	4.1520E-01
617.92	4.1708E-01
618.12	4.2499E-01
618.31	4.2359E-01
618.50	4.2585E-01
618.69	4.2234E-01
618.88	4.3269E-01
619.07	4.2862E-01
619.27	4.3170E-01
619.46	4.3302E-01
619.65	4.3958E-01
619.84	4.3183E-01
620.03	4.3117E-01
620.22	4.3958E-01
620.42	4.2581E-01
620.61	4.4167E-01
620.80	4.3882E-01
620.99	4.3749E-01
621.18	4.4510E-01
621.37	4.3578E-01
621.57	4.2816E-01
621.76	4.3968E-01
621.95	4.3787E-01
622.14	4.3239E-01
622.33	4.2841E-01
622.52	4.3344E-01
622.71	4.3954E-01
622.91	4.4177E-01
623.10	4.4023E-01
623.29	4.3812E-01
623.48	4.3554E-01
623.67	4.4068E-01
623.86	4.4058E-01
624.05	4.3990E-01
624.25	4.3412E-01
624.44	4.4201E-01
624.63	4.4633E-01
624.82	4.4164E-01
625.01	4.3783E-01
625.20	4.4534E-01
625.39	4.3485E-01
625.58	4.4415E-01
625.78	4.4701E-01
625.97	4.3424E-01
626.16	4.3913E-01
626.35	4.3808E-01
626.54	4.4587E-01
626.73	4.4642E-01
626.92	4.4264E-01
627.11	4.4199E-01
627.31	4.4161E-01
627.50	4.4052E-01
627.69	4.4547E-01
627.88	4.4784E-01
628.07	4.3098E-01
628.26	4.4182E-01
628.45	4.3809E-01
628.64	4.4122E-01
628.83	4.4050E-01
629.02	4.3023E-01
629.22	4.5099E-01
629.41	4.3920E-01
629.60	4.3045E-01
629.79	4.4585E-01
629.98	4.3866E-01
630.17	4.4482E-01
630.36	4.4401E-01
630.55	4.4527E-01
630.74	4.4680E-01
630.93	4.5270E-01
631.12	4.4040E-01
631.31	4.4225E-01
631.51	4.5134E-01
631.70	4.5032E-01
631.89	4.4383E-01
632.08	4.4619E-01
632.27	4.4953E-01
632.46	4.4779E-01
632.65	4.4883E-01
632.84	4.4202E-01
633.03	4.5653E-01
633.22	4.4943E-01
633.41	4.5748E-01
633.60	4.5804E-01
633.79	4.5272E-01
633.98	4.4364E-01
634.17	4.5306E-01
634.37	4.5314E-01
634.56	4.5858E-01
634.75	4.4666E-01
634.94	4.5679E-01
635.13	4.5178E-01
635.32	4.5925E-01
635.51	4.5835E-01
635.70	4.4928E-01
635.89	4.6622E-01
636.08	4.5418E-01
636.27	4.4806E-01
636.46	4.5898E-01
636.65	4.5345E-01
636.84	4.4773E-01
637.03	4.5891E-01
637.22	4.5840E-01
637.41	4.5474E-01
637.60	4.5842E-01
637.79	4.5969E-01
637.98	4.5738E-01
638.17	4.5762E-01
638.36	4.5163E-01
638.55	4.4661E-01
638.74	4.4854E-01
638.93	4.5144E-01
639.12	4.4958E-01
639.31	4.5045E-01
639.50	4.4871E-01
639.69	4.4717E-01
639.88	4.5569E-01
640.07	4.4884E-01
640.26	4.5793E-01
640.45	4.5388E-01
640.64	4.5619E-01
640.83	4.5648E-01
641.02	4.6295E-01
641.21	4.5449E-01
641.40	4.4246E-01
641.59	4.5482E-01
641.78	4.5686E-01
641.97	4.5538E-01
642.16	4.5856E-01
642.35	4.5606E-01
642.54	4.5635E-01
642.73	4.5217E-01
642.92	4.3665E-01
643.11	4.5617E-01
643.30	4.5781E-01
643.49	4.4714E-01
643.68	4.4996E-01
643.87	4.4218E-01
644.06	4.4973E-01
644.25	4.4313E-01
644.44	4.4412E-01
644.63	4.4248E-01
644.82	4.4085E-01
645.01	4.4460E-01
645.20	4.4327E-01
645.39	4.3937E-01
645.58	4.3684E-01
645.77	4.3763E-01
645.96	4.4459E-01
646.15	4.3853E-01
646.34	4.4001E-01
646.53	4.3665E-01
646.72	4.3895E-01
646.91	4.3069E-01
647.10	4.4567E-01
647.29	4.3408E-01
647.47	4.3994E-01
647.66	4.3390E-01
647.85	4.2917E-01
648.04	4.2966E-01
648.23	4.2969E-01
648.42	4.4608E-01
648.61	4.2473E-01
648.80	4.3505E-01
648.99	4.3964E-01
649.18	4.2911E-01
649.37	4.3872E-01
649.56	4.3397E-01
649.75	4.3134E-01
649.94	4.4032E-01
650.13	4.3792E-01
650.31	4.3988E-01
650.50	4.3563E-01
650.69	4.3947E-01
650.88	4.3599E-01
651.07	4.3832E-01
651.26	4.4162E-01
651.45	4.5072E-01
651.64	4.4240E-01
651.83	4.3394E-01
652.02	4.4019E-01
652.21	4.3589E-01
652.40	4.3596E-01
652.58	4.5025E-01
652.77	4.3315E-01
652.96	4.3040E-01
653.15	4.3821E-01
653.34	4.3616E-01
653.53	4.3667E-01
653.72	4.3342E-01
653.91	4.2360E-01
654.10	4.2643E-01
654.29	4.1894E-01
654.47	4.3279E-01
654.66	4.1399E-01
654.85	4.1652E-01
655.04	4.0989E-01
655.23	4.1846E-01
655.42	4.0706E-01
655.61	4.1701E-01
655.80	4.1504E-01
655.98	4.2156E-01
656.17	4.1919E-01
656.36	4.2302E-01
656.55	4.1672E-01
656.74	4.2988E-01
656.93	4.2821E-01
657.12	4.3132E-01
657.31	4.2355E-01
657.49	4.4076E-01
657.68	4.3716E-01
657.87	4.2531E-01
658.06	4.4591E-01
658.25	4.3637E-01
658.44	4.4558E-01
658.63	4.4031E-01
658.81	4.3802E-01
659.00	4.4598E-01
659.19	4.4226E-01
659.38	4.5720E-01
659.57	4.5682E-01
659.76	4.4791E-01
659.95	4.6082E-01
660.13	4.4286E-01
660.32	4.5563E-01
660.51	4.5234E-01
660.70	4.5895E-01
660.89	4.5291E-01
661.08	4.5529E-01
661.26	4.5005E-01
661.45	4.5821E-01
661.64	4.5220E-01
661.83	4.5117E-01
662.02	4.5454E-01
662.21	4.6004E-01
662.39	4.6338E-01
662.58	4.5546E-01
662.77	4.6962E-01
662.96	4.6298E-01
663.15	4.5466E-01
663.33	4.6842E-01
663.52	4.5973E-01
663.71	4.6102E-01
663.90	4.6129E-01
664.09	4.5282E-01
664.28	4.5907E-01
664.46	4.5381E-01
664.65	4.5651E-01
664.84	4.4981E-01
665.03	4.6021E-01
665.22	4.6341E-01
665.40	4.6311E-01
665.59	4.5828E-01
665.78	4.5716E-01
665.97	4.5789E-01
666.16	4.6498E-01
666.34	4.7107E-01
666.53	4.6051E-01
666.72	4.7174E-01
666.91	4.6540E-01
667.09	4.6600E-01
667.28	4.7180E-01
667.47	4.6998E-01
667.66	4.6484E-01
667.85	4.6484E-01
668.03	4.4013E-01
668.22	4.7202E-01
668.41	4.6693E-01
668.60	4.5035E-01
668.78	4.7200E-01
668.97	4.6302E-01
669.16	4.5634E-01
669.35	4.6964E-01
669.54	4.5609E-01
669.72	4.7042E-01
669.91	4.6189E-01
670.10	4.6488E-01
670.29	4.6392E-01
670.47	4.6853E-01
670.66	4.7168E-01
670.85	4.6330E-01
671.04	4.5384E-01
671.22	4.5358E-01
671.41	4.6257E-01
671.60	4.6440E-01
671.79	4.6511E-01
671.97	4.5797E-01
672.16	4.7409E-01
672.35	4.6870E-01
672.54	4.6881E-01
672.72	4.6243E-01
672.91	4.5736E-01
673.10	4.6388E-01
673.28	4.6040E-01
673.47	4.6248E-01
673.66	4.6353E-01
673.85	4.7747E-01
674.03	4.6961E-01
674.22	4.6798E-01
674.41	4.6142E-01
674.60	4.6188E-01
674.78	4.5148E-01
674.97	4.5797E-01
675.16	4.8213E-01
675.34	4.7222E-01
675.53	4.6459E-01
675.72	4.5898E-01
675.91	4.7988E-01
676.09	4.6820E-01
676.28	4.7444E-01
676.47	4.7038E-01
676.65	4.5760E-01
676.84	4.6749E-01
677.03	4.7312E-01
677.22	4.6222E-01
677.40	4.7105E-01
677.59	4.6711E-01
677.78	4.6230E-01
677.96	4.6668E-01
678.15	4.7334E-01
678.34	4.8249E-01
678.52	4.6543E-01
678.71	4.6964E-01
678.90	4.7177E-01
679.08	4.7436E-01
679.27	4.6519E-01
679.46	4.8238E-01
679.64	4.7530E-01
679.83	4.7148E-01
680.02	4.7337E-01
680.21	4.5805E-01
680.39	4.8245E-01
680.58	4.7529E-01
680.77	4.7149E-01
680.95	4.7375E-01
681.14	4.6188E-01
681.33	4.7333E-01
681.51	4.7926E-01
681.70	4.7636E-01
681.89	4.8073E-01
682.07	4.7383E-01
682.26	4.5828E-01
682.44	4.7605E-01
682.63	4.7363E-01
682.82	4.7778E-01
683.00	4.5364E-01
683.19	4.6715E-01
683.38	4.7112E-01
683.56	4.7219E-01
683.75	4.6485E-01
683.94	4.5135E-01
684.12	4.4945E-01
684.31	4.6137E-01
684.50	4.6178E-01
684.68	4.4942E-01
684.87	4.4715E-01
685.05	4.4937E-01
685.24	4.3446E-01
685.43	4.4164E-01
685.61	4.3910E-01
685.80	4.2762E-01
685.99	4.3547E-01
686.17	4.2195E-01
686.36	4.3643E-01
686.54	4.3368E-01
686.73	4.2843E-01
686.92	4.2788E-01
687.10	4.2229E-01
687.29	4.3109E-01
687.48	4.2097E-01
687.66	4.3967E-01
687.85	4.2534E-01
688.03	4.3032E-01
688.22	4.1925E-01
688.41	4.3470E-01
688.59	4.1937E-01
688.78	4.3673E-01
688.96	4.4075E-01
689.15	4.4946E-01
689.34	4.2272E-01
689.52	4.5416E-01
689.71	4.4401E-01
689.89	4.5188E-01
690.08	4.6269E-01
690.27	4.5236E-01
690.45	4.4942E-01
690.64	4.4784E-01
690.82	4.4144E-01
691.01	4.5416E-01
691.19	4.5024E-01
691.38	4.5555E-01
691.57	4.6250E-01
691.75	4.5022E-01
691.94	4.6568E-01
692.12	4.5663E-01
692.31	4.6794E-01
692.50	4.5963E-01
692.68	4.6687E-01
692.87	4.7425E-01
693.05	4.6816E-01
693.24	4.5631E-01
693.42	4.6400E-01
693.61	4.7203E-01
693.79	4.7878E-01
693.98	4.6677E-01
694.17	4.7553E-01
694.35	4.8612E-01
694.54	4.8684E-01
694.72	4.8107E-01
694.91	4.8363E-01
695.09	4.8507E-01
695.28	4.8629E-01
695.46	4.9032E-01
695.65	4.9387E-01
695.83	4.9557E-01
696.02	5.0441E-01
696.21	5.0709E-01
696.39	4.9827E-01
696.58	5.0649E-01
696.76	4.8329E-01
696.95	4.9731E-01
697.13	5.0158E-01
697.32	5.0783E-01
697.50	5.0690E-01
697.69	5.1117E-01
697.87	5.1757E-01
698.06	5.1830E-01
698.24	5.0684E-01
698.43	5.1153E-01
698.61	5.2950E-01
698.80	5.1877E-01
698.98	5.2805E-01
699.17	5.0257E-01
699.35	5.2200E-01
699.54	5.1507E-01
699.72	5.0302E-01
699.91	5.2588E-01
700.09	5.2641E-01
700.28	5.2820E-01
700.46	5.2929E-01
700.65	5.2411E-01
700.83	5.3017E-01
701.02	5.3494E-01
701.20	5.0967E-01
701.39	5.3973E-01
701.57	5.3064E-01
701.76	5.1939E-01
701.94	5.2901E-01
702.13	5.3680E-01
702.31	5.1611E-01
702.50	5.6133E-01
702.68	5.5117E-01
702.87	5.5877E-01
703.05	5.6048E-01
703.24	5.5312E-01
703.42	5.2739E-01
703.61	5.6284E-01
703.79	5.6879E-01
703.98	5.4846E-01
704.16	5.5878E-01
704.35	5.5416E-01
704.53	5.6411E-01
704.72	5.6651E-01
704.90	5.7185E-01
705.08	5.5898E-01
705.27	5.8569E-01
705.45	5.8314E-01
705.64	5.9034E-01
705.82	5.8678E-01
706.01	5.8563E-01
706.19	5.7848E-01
706.38	5.8496E-01
706.56	6.0261E-01
706.75	6.0027E-01
706.93	5.9567E-01
707.11	5.8365E-01
707.30	6.0560E-01
707.48	6.0241E-01
707.67	5.9223E-01
707.85	5.9816E-01
708.04	6.0689E-01
708.22	6.0545E-01
708.40	5.9770E-01
708.59	5.9338E-01
708.77	6.1535E-01
708.96	6.0704E-01
709.14	6.1197E-01
709.33	6.0615E-01
709.51	6.1543E-01
709.69	6.1469E-01
709.88	6.1995E-01
710.06	6.1807E-01
710.25	6.0876E-01
710.43	6.1955E-01
710.62	6.2824E-01
710.80	6.1998E-01
710.98	6.2479E-01
711.17	6.2029E-01
711.35	6.2732E-01
711.54	6.3136E-01
711.72	6.2016E-01
711.90	6.3475E-01
712.09	6.3475E-01
712.27	6.1715E-01
712.46	6.3038E-01
712.64	6.1881E-01
712.82	6.3925E-01
713.01	6.3958E-01
713.19	6.3754E-01
713.37	6.2661E-01
713.56	6.2398E-01
713.74	6.3482E-01
713.93	6.2187E-01
714.11	6.1231E-01
714.29	5.9639E-01
714.48	6.1620E-01
714.66	6.1251E-01
714.85	5.9952E-01
715.03	5.9931E-01
715.21	5.9250E-01
715.40	5.7851E-01
715.58	5.7588E-01
715.76	5.6069E-01
715.95	5.6323E-01
716.13	5.7554E-01
716.31	5.6207E-01
716.50	5.5376E-01
716.68	5.4218E-01
716.87	5.4978E-01
717.05	5.4569E-01
717.23	5.2824E-01
717.42	5.3574E-01
717.60	5.2619E-01
717.78	5.3063E-01
717.97	5.2975E-01
718.15	5.2413E-01
718.33	5.1818E-01
718.52	5.2825E-01
718.70	5.3372E-01
718.88	5.2074E-01
719.07	5.5144E-01
719.25	5.3434E-01
719.43	5.4411E-01
719.62	5.4102E-01
719.80	5.4412E-01
719.98	5.6306E-01
720.17	5.5679E-01
720.35	5.5790E-01
720.53	5.7292E-01
720.72	5.8186E-01
720.90	5.7294E-01
721.08	5.6738E-01
721.27	5.7528E-01
721.45	5.7574E-01
721.63	5.7461E-01
721.82	5.8539E-01
722.00	5.7687E-01
722.18	5.7896E-01
722.36	5.9604E-01
722.55	5.9113E-01
722.73	5.9228E-01
722.91	5.8963E-01
723.10	5.9966E-01
723.28	5.9055E-01
723.46	5.6606E-01
723.65	5.8319E-01
723.83	5.8316E-01
724.01	5.7864E-01
724.19	5.9133E-01
724.38	5.9121E-01
724.56	5.9604E-01
724.74	6.0331E-01
724.93	5.7913E-01
725.11	5.8400E-01
725.29	6.0434E-01
725.47	6.0424E-01
725.66	6.0436E-01
725.84	5.9990E-01
726.02	6.0416E-01
726.21	6.1827E-01
726.39	6.0388E-01
726.57	6.0987E-01
726.75	6.0544E-01
726.94	6.2254E-01
727.12	6.0874E-01
727.30	6.0893E-01
727.48	6.0455E-01
727.67	6.2338E-01
727.85	6.1485E-01
728.03	6.2338E-01
728.21	6.3687E-01
728.40	6.2026E-01
728.58	6.4198E-01
728.76	6.3251E-01
728.94	6.4242E-01
729.13	6.5178E-01
729.31	6.3545E-01
729.49	6.4977E-01
729.67	6.5310E-01
729.86	6.5936E-01
730.04	6.4578E-01
730.22	6.7056E-01
730.40	6.7081E-01
730.59	6.7583E-01
730.77	6.8208E-01
730.95	7.0015E-01
731.13	6.9662E-01
731.31	7.0386E-01
731.50	6.8923E-01
731.68	7.2146E-01
731.86	7.1220E-01
732.04	7.2434E-01
732.23	7.4081E-01
732.41	7.3279E-01
732.59	7.4189E-01
732.77	7.4698E-01
732.95	7.5016E-01
733.14	7.4631E-01
733.32	7.6737E-01
733.50	7.5976E-01
733.68	7.6147E-01
733.86	7.6201E-01
734.05	7.7422E-01
734.23	7.7824E-01
734.41	7.5692E-01
734.59	7.7212E-01
734.77	7.7838E-01
734.96	7.5762E-01
735.14	7.8826E-01
735.32	7.8631E-01
735.50	7.8668E-01
735.68	8.0576E-01
735.87	7.9262E-01
736.05	8.1460E-01
736.23	7.8008E-01
736.41	8.0934E-01
736.59	8.0342E-01
736.77	7.9891E-01
736.96	7.9682E-01
737.14	7.8708E-01
737.32	8.1399E-01
737.50	8.2108E-01
737.68	8.1572E-01
737.87	8.2298E-01
738.05	8.3676E-01
738.23	8.0623E-01
738.41	8.2031E-01
738.59	8.2623E-01
738.77	8.3360E-01
738.95	8.4677E-01
739.14	8.2275E-01
739.32	8.2782E-01
739.50	8.5374E-01
739.68	8.3096E-01
739.86	8.4099E-01
740.04	8.4067E-01
740.23	8.2667E-01
740.41	8.5372E-01
740.59	8.5894E-01
740.77	8.6808E-01
740.95	8.5741E-01
741.13	8.5092E-01
741.31	8.4765E-01
741.50	8.5393E-01
741.68	8.4926E-01
741.86	8.4767E-01
742.04	8.6838E-01
742.22	8.7585E-01
742.40	8.7125E-01
742.58	8.7820E-01
742.76	8.8301E-01
742.95	8.5687E-01
743.13	8.9176E-01
743.31	8.8526E-01
743.49	8.7828E-01
743.67	8.9834E-01
743.85	8.9429E-01
744.03	8.8500E-01
744.21	8.9481E-01
744.39	8.7903E-01
744.58	9.0238E-01
744.76	9.0112E-01
744.94	9.1554E-01
745.12	9.0422E-01
745.30	8.9433E-01
745.48	9.0993E-01
745.66	9.1658E-01
745.84	8.9204E-01
746.02	8.9443E-01
746.20	9.0484E-01
746.38	9.1170E-01
746.57	9.2725E-01
746.75	8.8585E-01
746.93	9.1271E-01
747.11	8.9236E-01
747.29	9.0806E-01
747.47	9.1909E-01
747.65	9.1252E-01
747.83	8.8602E-01
748.01	9.0612E-01
748.19	9.0944E-01
748.37	9.0752E-01
748.55	9.0819E-01
748.73	8.9908E-01
748.92	9.1027E-01
749.10	8.9606E-01
749.28	9.1628E-01
749.46	9.0050E-01
749.64	8.9451E-01
749.82	9.0074E-01
750.00	9.1380E-01
750.18	9.0911E-01
750.36	8.9088E-01
750.54	9.1196E-01
750.72	9.2285E-01
750.90	9.2350E-01
751.08	9.1363E-01
751.26	9.2802E-01
751.44	9.2813E-01
751.62	9.3995E-01
751.80	9.2545E-01
751.98	9.3394E-01
752.16	9.3854E-01
752.34	9.4202E-01
752.52	9.4869E-01
752.71	9.2092E-01
752.89	9.1684E-01
753.07	9.4997E-01
753.25	9.1871E-01
753.43	9.5108E-01
753.61	9.3035E-01
753.79	9.5892E-01
753.97	9.5268E-01
754.15	9.5911E-01
754.33	9.6869E-01
754.51	9.7051E-01
754.69	9.7338E-01
754.87	9.6102E-01
755.05	9.6274E-01
755.23	9.7908E-01
755.41	9.8985E-01
755.59	9.0933E-01
755.77	9.5693E-01
755.95	9.5190E-01
756.13	9.2326E-01
756.31	9.4792E-01
756.49	9.4295E-01
756.67	9.2310E-01
756.85	9.1287E-01
757.03	8.9633E-01
757.21	8.8854E-01
757.39	8.8086E-01
757.57	8.7217E-01
757.75	8.3233E-01
757.93	7.9462E-01
758.11	7.8903E-01
758.29	7.7137E-01
758.47	7.4225E-01
758.65	7.3524E-01
758.83	7.4832E-01
759.01	7.1641E-01
759.18	6.9039E-01
759.36	6.4725E-01
759.54	6.6145E-01
759.72	6.2816E-01
759.90	6.3594E-01
760.08	6.2766E-01
760.26	6.2452E-01
760.44	5.9620E-01
760.62	5.7400E-01
760.80	5.7431E-01
760.98	6.0871E-01
761.16	6.0816E-01
761.34	5.9183E-01
761.52	6.1617E-01
761.70	5.8830E-01
761.88	5.9621E-01
762.06	6.0224E-01
762.24	6.0155E-01
762.42	6.0903E-01
762.60	6.1277E-01
762.78	6.2873E-01
762.95	6.2815E-01
763.13	6.4949E-01
763.31	6.6289E-01
763.49	6.6066E-01
763.67	6.7500E-01
763.85	6.6511E-01
764.03	7.0955E-01
764.21	6.9761E-01
764.39	7.2722E-01
764.57	7.5811E-01
764.75	7.5966E-01
764.93	8.0368E-01
765.11	7.8390E-01
765.28	8.2347E-01
765.46	8.2925E-01
765.64	8.3339E-01
765.82	8.5871E-01
766.00	8.7824E-01
766.18	8.9097E-01
766.36	9.0077E-01
766.54	9.0468E-01
766.72	9.2001E-01
766.90	9.6009E-01
767.07	9.2641E-01
767.25	9.5610E-01
767.43	9.6873E-01
767.61	9.8986E-01
767.79	9.9784E-01
767.97	9.9947E-01
768.15	9.9397E-01
768.33	9.8747E-01
768.51	1.0141E00
768.68	1.0171E00
768.86	1.0053E00
769.04	1.0153E00
769.22	1.0546E00
769.40	1.0511E00
769.58	1.0336E00
769.76	1.0712E00
769.94	1.0651E00
770.11	1.0422E00
770.29	1.0573E00
770.47	1.0573E00
770.65	1.0631E00
770.83	1.0600E00
771.01	1.0758E00
771.19	1.0747E00
771.36	1.0561E00
771.54	1.0789E00
771.72	1.0645E00
771.90	1.0465E00
772.08	1.0714E00
772.26	1.0884E00
772.44	1.0517E00
772.61	1.0751E00
772.79	1.0463E00
772.97	1.0768E00
773.15	1.0934E00
773.33	1.0553E00
773.51	1.0813E00
773.68	1.0581E00
773.86	1.0478E00
774.04	1.0605E00
774.22	1.0405E00
774.40	1.0525E00
774.58	1.0648E00
774.75	1.0574E00
774.93	1.0296E00
775.11	1.0668E00
775.29	1.0442E00
775.47	1.0271E00
775.64	1.0597E00
775.82	1.0435E00
776.00	1.0513E00
776.18	1.0303E00
776.36	1.0334E00
776.53	1.0710E00
776.71	1.0358E00
776.89	1.0321E00
777.07	1.0478E00
777.25	1.0402E00
777.42	1.0400E00
777.60	1.0250E00
777.78	1.0471E00
777.96	1.0341E00
778.14	1.0518E00
778.31	1.0344E00
778.49	1.0055E00
778.67	1.0140E00
778.85	1.0233E00
779.03	1.0351E00
779.20	1.0309E00
779.38	1.0248E00
779.56	1.0020E00
779.74	1.0300E00
779.91	1.0114E00
780.09	1.0061E00
780.27	9.8900E-01
780.45	9.9918E-01
780.62	1.0110E00
780.80	1.0175E00
780.98	9.8518E-01
781.16	9.6822E-01
781.34	9.9906E-01
781.51	1.0017E00
781.69	1.0055E00
781.87	9.9761E-01
782.05	9.9107E-01
782.22	9.9413E-01
782.40	9.8144E-01
782.58	9.9078E-01
782.76	9.7118E-01
782.93	9.9616E-01
783.11	1.0063E00
783.29	9.7566E-01
783.47	9.7697E-01
783.64	9.8368E-01
783.82	9.6598E-01
784.00	9.4029E-01
784.17	9.6361E-01
784.35	9.6737E-01
784.53	9.5758E-01
784.71	9.7131E-01
784.88	9.5550E-01
785.06	9.8705E-01
785.24	9.5996E-01
785.42	9.7466E-01
785.59	9.6354E-01
785.77	9.2600E-01
785.95	9.4049E-01
786.12	9.2094E-01
786.30	9.4304E-01
786.48	9.3733E-01
786.65	9.2553E-01
786.83	9.3245E-01
787.01	9.3325E-01
787.19	9.2417E-01
787.36	9.3286E-01
787.54	9.2314E-01
787.72	9.2995E-01
787.89	9.2286E-01
788.07	9.1332E-01
788.25	9.0749E-01
788.42	8.9835E-01
788.60	9.2160E-01
788.78	8.9731E-01
788.96	9.0006E-01
789.13	8.8116E-01
789.31	8.8570E-01
789.49	8.8566E-01
789.66	9.0157E-01
789.84	8.7917E-01
790.02	8.5058E-01
790.19	8.7263E-01
790.37	8.8535E-01
790.55	8.7701E-01
790.72	8.7958E-01
790.90	9.0206E-01
791.08	8.6671E-01
791.25	8.7237E-01
791.43	8.7599E-01
791.61	8.6346E-01
791.78	8.6393E-01
791.96	8.3747E-01
792.14	8.6270E-01
792.31	8.7753E-01
792.49	8.3468E-01
792.67	8.8441E-01
792.84	8.5071E-01
793.02	8.5250E-01
793.19	8.4368E-01
793.37	8.6977E-01
793.55	8.7018E-01
793.72	8.6300E-01
793.90	8.3264E-01
794.08	8.4991E-01
794.25	8.5426E-01
794.43	8.3340E-01
794.61	8.5047E-01
794.78	8.4848E-01
794.96	8.2152E-01
795.13	8.4655E-01
795.31	8.5003E-01
795.49	8.2106E-01
795.66	8.4190E-01
795.84	8.3252E-01
796.01	8.3806E-01
796.19	8.2397E-01
796.37	8.4351E-01
796.54	8.3424E-01
796.72	8.4155E-01
796.90	8.2672E-01
797.07	8.0744E-01
797.25	8.2638E-01
797.42	8.4278E-01
797.60	8.3696E-01
797.78	8.2477E-01
797.95	8.0332E-01
798.13	7.9347E-01
798.30	8.1810E-01
798.48	8.1294E-01
798.66	8.3464E-01
798.83	7.9381E-01
799.01	8.1800E-01
799.18	8.0142E-01
799.36	8.2860E-01
799.53	7.7699E-01
799.71	8.1876E-01
799.89	7.9696E-01
800.06	8.0137E-01
800.24	8.0361E-01
800.41	7.7376E-01
800.59	8.1709E-01
800.76	7.8272E-01
800.94	7.8386E-01
801.12	8.0468E-01
801.29	8.0000E-01
801.47	8.0898E-01
801.64	7.8234E-01
801.82	8.1021E-01
801.99	8.0693E-01
802.17	8.0420E-01
802.34	7.9546E-01
802.52	7.9463E-01
802.70	8.0589E-01
802.87	7.7943E-01
803.05	7.6958E-01
803.22	8.1450E-01
803.40	7.8872E-01
803.57	7.9147E-01
803.75	8.1557E-01
803.92	7.9587E-01
804.10	7.6868E-01
804.27	7.7415E-01
804.45	7.8969E-01
804.63	7.8125E-01
804.80	7.7139E-01
804.98	7.9150E-01
805.15	7.5715E-01
805.33	8.0515E-01
805.50	8.0997E-01
805.68	8.0354E-01
805.85	8.1476E-01
806.03	7.9259E-01
806.20	7.9778E-01
806.38	7.4609E-01
806.55	7.5867E-01
806.73	8.0794E-01
806.90	7.8172E-01
807.08	7.7078E-01
807.25	7.4399E-01
807.43	7.7223E-01
807.60	7.8715E-01
807.78	7.5582E-01
807.95	7.2992E-01
808.13	7.4676E-01
808.30	7.3933E-01
808.48	7.7142E-01
808.65	7.5537E-01
808.83	7.8671E-01
809.00	7.5819E-01
809.18	7.8668E-01
809.35	7.3805E-01
809.53	7.6990E-01
809.70	7.5191E-01
809.88	7.5322E-01
810.05	7.4612E-01
810.23	7.6286E-01
810.40	7.4749E-01
810.57	7.4239E-01
810.75	7.1908E-01
810.92	7.1502E-01
811.10	7.1846E-01
811.27	6.9076E-01
811.45	7.0211E-01
811.62	6.8934E-01
811.80	6.7164E-01
811.97	6.9135E-01
812.15	6.9243E-01
812.32	6.9124E-01
812.50	6.4541E-01
812.67	7.1022E-01
812.84	6.4749E-01
813.02	6.6860E-01
813.19	6.6259E-01
813.37	6.6240E-01
813.54	6.3599E-01
813.72	6.4496E-01
813.89	6.1501E-01
814.07	6.3358E-01
814.24	6.3674E-01
814.41	6.3957E-01
814.59	6.0347E-01
814.76	5.9750E-01
814.94	6.1597E-01
815.11	6.2610E-01
815.29	5.6021E-01
815.46	5.7025E-01
815.63	5.8333E-01
815.81	5.8286E-01
815.98	5.3694E-01
816.16	5.4379E-01
816.33	5.8732E-01
816.50	6.0304E-01
816.68	5.8588E-01
816.85	5.6905E-01
817.03	5.9184E-01
817.20	5.7878E-01
817.37	5.9752E-01
817.55	5.7702E-01
817.72	5.9093E-01
817.90	5.5883E-01
818.07	5.8635E-01
818.24	5.5111E-01
818.42	5.6777E-01
818.59	5.7080E-01
818.77	5.7376E-01
818.94	6.0583E-01
819.11	5.7242E-01
819.29	6.1759E-01
819.46	6.1218E-01
819.64	5.6928E-01
819.81	6.3431E-01
819.98	6.2451E-01
820.16	5.9046E-01
820.33	6.1457E-01
820.50	6.0876E-01
820.68	5.8262E-01
820.85	6.0634E-01
821.02	5.9463E-01
821.20	5.7308E-01
821.37	5.9962E-01
821.55	5.5887E-01
821.72	5.8716E-01
821.89	5.9304E-01
822.07	6.1364E-01
822.24	6.1159E-01
822.41	5.5616E-01
822.59	6.2643E-01
822.76	6.2003E-01
822.93	5.7594E-01
823.11	5.8755E-01
823.28	6.0249E-01
823.45	5.8118E-01
823.63	5.8242E-01
823.80	6.0820E-01
823.97	5.4336E-01
824.15	6.1014E-01
824.32	5.8076E-01
824.49	6.3275E-01
824.67	5.8678E-01
824.84	6.0624E-01
825.01	6.0511E-01
825.19	6.0794E-01
825.36	6.0502E-01
825.53	6.3006E-01
825.71	6.2002E-01
825.88	6.2115E-01
826.05	5.8409E-01
826.23	6.1665E-01
826.40	5.9706E-01
826.57	6.0127E-01
826.75	5.9027E-01
826.92	5.7132E-01
827.09	5.7028E-01
827.26	6.3564E-01
827.44	6.0320E-01
827.61	6.3482E-01
827.78	6.1721E-01
827.96	5.7031E-01
828.13	6.3520E-01
828.30	6.1281E-01
828.48	5.9826E-01
828.65	5.9267E-01
828.82	5.9581E-01
828.99	5.9806E-01
829.17	6.0611E-01
829.34	5.5176E-01
829.51	5.9796E-01
829.68	6.3193E-01
829.86	6.1794E-01
830.03	5.9692E-01
830.20	6.0932E-01
830.38	5.9739E-01
830.55	5.7141E-01
830.72	6.0706E-01
830.89	5.6516E-01
831.07	5.6777E-01
831.24	5.6655E-01
831.41	5.7787E-01
831.58	6.0545E-01
831.76	6.3172E-01
831.93	6.1291E-01
832.10	6.1230E-01
832.27	5.6249E-01
832.45	5.6288E-01
832.62	6.0353E-01
832.79	5.7762E-01
832.96	6.0786E-01
833.14	5.5911E-01
833.31	6.2468E-01
833.48	5.9678E-01
833.65	5.7532E-01
833.83	6.2659E-01
834.00	6.3336E-01
834.17	5.9679E-01
834.34	6.1239E-01
834.51	5.9307E-01
834.69	5.7718E-01
834.86	6.2193E-01
835.03	5.9106E-01
835.20	6.1843E-01
835.38	5.9686E-01
835.55	6.0276E-01
835.72	5.8714E-01
835.89	6.5505E-01
836.06	5.8966E-01
836.24	5.8684E-01
836.41	5.6805E-01
836.58	6.2254E-01
836.75	6.1935E-01
836.92	6.1176E-01
837.10	5.8650E-01
837.27	6.0569E-01
837.44	5.8830E-01
837.61	6.4541E-01
837.78	5.9938E-01
837.96	6.2788E-01
838.13	6.1294E-01
838.30	6.3963E-01
838.47	6.2474E-01
838.64	6.1403E-01
838.82	6.0988E-01
838.99	6.5993E-01
839.16	6.0537E-01
839.33	6.1285E-01
839.50	6.5535E-01
839.67	6.2731E-01
839.85	5.7697E-01
840.02	6.1999E-01
840.19	5.9853E-01
840.36	6.4519E-01
840.53	5.8558E-01
840.70	5.7858E-01
840.88	6.3298E-01
841.05	6.4580E-01
841.22	6.1674E-01
841.39	6.1629E-01
841.56	6.2395E-01
841.73	6.1025E-01
841.91	6.3465E-01
842.08	6.3475E-01
842.25	6.2576E-01
842.42	6.3732E-01
842.59	6.1937E-01
842.76	6.6688E-01
842.93	6.2112E-01
843.11	6.3531E-01
843.28	6.2285E-01
843.45	6.2697E-01
843.62	5.9494E-01
843.79	6.0568E-01
843.96	6.5595E-01
844.13	6.2807E-01
844.30	6.2570E-01
844.48	6.5121E-01
844.65	5.9001E-01
844.82	5.6616E-01
844.99	6.0065E-01
845.16	5.9620E-01
845.33	6.0527E-01
845.50	6.0350E-01
845.67	5.6690E-01
845.84	6.0324E-01
846.02	5.8502E-01
846.19	6.0813E-01
846.36	6.0856E-01
846.53	6.4968E-01
846.70	6.1432E-01
846.87	5.6295E-01
847.04	6.1953E-01
847.21	6.1457E-01
847.38	6.1556E-01
847.55	6.1563E-01
847.73	5.8136E-01
847.90	5.9660E-01
848.07	5.7019E-01
848.24	5.8391E-01
848.41	5.7310E-01
848.58	6.6827E-01
848.75	5.9186E-01
848.92	6.4723E-01
849.09	5.9945E-01
849.26	5.8168E-01
849.43	5.6389E-01
849.60	5.8519E-01
849.77	6.1165E-01
849.94	4.9649E-01
850.12	6.1719E-01
850.29	5.9190E-01
850.46	5.8047E-01
850.63	5.6567E-01
850.80	5.9174E-01
850.97	5.8818E-01
851.14	5.4547E-01
851.31	5.1401E-01
851.48	5.5720E-01
851.65	5.6808E-01
851.82	5.9800E-01
851.99	5.8197E-01
852.16	5.0588E-01
852.33	5.6642E-01
852.50	5.4204E-01
852.67	5.5355E-01
852.84	5.6731E-01
853.01	5.4256E-01
853.18	5.6890E-01
853.35	5.2545E-01
853.52	6.0258E-01
853.69	5.4899E-01
853.86	5.1399E-01
854.03	5.0538E-01
854.21	5.5721E-01
854.38	5.4173E-01
854.55	5.6352E-01
854.72	5.7173E-01
854.89	5.1375E-01
855.06	4.7127E-01
855.23	5.3406E-01
855.40	5.7817E-01
855.57	5.0778E-01
855.74	5.2721E-01
855.91	5.4144E-01
856.08	5.1055E-01
856.25	5.4821E-01
856.42	5.3828E-01
856.59	5.3431E-01
856.76	5.5034E-01
856.93	5.4657E-01
857.10	5.3956E-01
857.27	5.9215E-01
857.44	5.5984E-01
857.61	5.5497E-01
857.77	5.1806E-01
857.94	5.2436E-01
858.11	5.1871E-01
858.28	5.8401E-01
858.45	5.1543E-01
858.62	5.6105E-01
858.79	5.3629E-01
858.96	5.3957E-01
859.13	5.4070E-01
859.30	5.6960E-01
859.47	5.2864E-01
859.64	4.8438E-01
859.81	5.6723E-01
859.98	5.6588E-01
860.15	5.3823E-01
860.32	5.1961E-01
860.49	6.1542E-01
860.66	5.5726E-01
860.83	5.7075E-01
861.00	5.5747E-01
861.17	5.6854E-01
861.34	5.7313E-01
861.51	4.9153E-01
861.68	5.7328E-01
861.84	5.5644E-01
862.01	5.1987E-01
862.18	5.3190E-01
862.35	5.5798E-01
862.52	5.5956E-01
862.69	5.3727E-01
862.86	5.5690E-01
863.03	5.6886E-01
863.20	5.4908E-01
863.37	5.5644E-01
863.54	5.1449E-01
863.71	5.1570E-01
863.88	5.3317E-01
864.05	5.2322E-01
864.21	5.4964E-01
864.38	4.9139E-01
864.55	4.7448E-01
864.72	5.5653E-01
864.89	5.1398E-01
865.06	5.5059E-01
865.23	5.0398E-01
865.40	4.7776E-01
865.57	5.5132E-01
865.74	5.1986E-01
865.90	5.3051E-01
866.07	5.2306E-01
866.24	4.6841E-01
866.41	4.5649E-01
866.58	4.7982E-01
866.75	4.8894E-01
866.92	4.9228E-01
867.09	4.9402E-01
867.26	5.0067E-01
867.42	4.6414E-01
867.59	4.3973E-01
867.76	5.1629E-01
867.93	4.8492E-01
868.10	5.0292E-01
868.27	4.3364E-01
868.44	5.0610E-01
868.60	5.2081E-01
868.77	5.1233E-01
868.94	4.9212E-01
869.11	4.8980E-01
869.28	5.2818E-01
869.45	4.4366E-01
869.62	5.1176E-01
869.78	4.9276E-01
869.95	4.5365E-01
870.12	4.7817E-01
870.29	5.0175E-01
870.46	5.1505E-01
870.63	4.7922E-01
870.80	4.4205E-01
870.96	4.7442E-01
871.13	4.6533E-01
871.30	5.0526E-01
871.47	5.0949E-01
871.64	5.0632E-01
871.81	4.0795E-01
871.97	5.2918E-01
872.14	4.3819E-01
872.31	4.2241E-01
872.48	4.5830E-01
872.65	5.0337E-01
872.81	4.6250E-01
872.98	5.1876E-01
873.15	4.9833E-01
873.32	4.9599E-01
873.49	4.6657E-01
873.66	4.9404E-01
873.82	4.7499E-01
873.99	4.4893E-01
874.16	4.8449E-01
874.33	4.5779E-01
874.50	4.9630E-01
874.66	4.6534E-01
874.83	4.7423E-01
875.00	4.6262E-01
875.17	3.9897E-01
875.34	4.9065E-01
875.50	4.4961E-01
875.67	4.3682E-01
875.84	4.5269E-01
876.01	4.3135E-01
876.17	4.1285E-01
876.34	4.1614E-01
876.51	4.9545E-01
876.68	4.7717E-01
876.85	4.6296E-01
877.01	4.8393E-01
877.18	4.3716E-01
877.35	4.5212E-01
877.52	4.4836E-01
877.68	4.7188E-01
877.85	4.3600E-01
878.02	4.5470E-01
878.19	4.3751E-01
878.35	4.5365E-01
878.52	4.4914E-01
878.69	4.6170E-01
878.86	4.1216E-01
879.02	4.3520E-01
879.19	3.9583E-01
879.36	4.2175E-01
879.53	3.7098E-01
879.69	4.1890E-01
879.86	4.6900E-01
880.03	4.5916E-01
880.20	4.0924E-01
880.36	4.6566E-01
880.53	3.9648E-01
880.70	4.6776E-01
880.87	4.1805E-01
881.03	4.1752E-01
881.20	3.5973E-01
881.37	4.0915E-01
881.54	4.2747E-01
881.70	4.6093E-01
881.87	4.0788E-01
882.04	4.0807E-01
882.20	4.1079E-01
882.37	3.6556E-01
882.54	4.3125E-01
882.71	4.2666E-01
882.87	4.6035E-01
883.04	4.0330E-01
883.21	4.0410E-01
883.37	3.8572E-01
883.54	4.0839E-01
883.71	3.9442E-01
883.87	3.7125E-01
884.04	4.4590E-01
884.21	3.9546E-01
884.38	3.7556E-01
884.54	4.5607E-01
884.71	4.5872E-01
884.88	4.0053E-01
885.04	4.2075E-01
885.21	3.8743E-01
885.38	3.8486E-01
885.54	4.7710E-01
885.71	3.9675E-01
885.88	4.2862E-01
886.04	4.1751E-01
886.21	4.2030E-01
886.38	3.9777E-01
886.54	4.0898E-01
886.71	3.7693E-01
886.88	4.5369E-01
887.04	3.5923E-01
887.21	3.9432E-01
887.38	4.3763E-01
887.54	4.1744E-01
887.71	4.0984E-01
887.88	3.6781E-01
888.04	4.1506E-01
888.21	4.3383E-01
888.38	3.7339E-01
888.54	3.8298E-01
888.71	4.2768E-01
888.87	3.4429E-01
889.04	3.4429E-01
>>>>>End Processed Spectral Data<<<<<
