SpectraSuite Data File
++++++++++++++++++++++++++++++++++++
Date: Wed Jul 25 11:46:31 HST 2007
User: guest
Dark Spectrum Present: Yes
Reference Spectrum Present: No
Number of Sampled Component Spectra: 1
Spectrometers: USB4E01242
Integration Time (usec): 20000 (USB4E01242)
Spectra Averaged: 1 (USB4E01242)
Boxcar Smoothing: 10 (USB4E01242)
Correct for Electrical Dark: No (USB4E01242)
Strobe/Lamp Enabled: No (USB4E01242)
Correct for Detector Non-linearity: No (USB4E01242)
Correct for Stray Light: No (USB4E01242)
Number of Pixels in Processed Spectrum: 3648
>>>>>Begin Processed Spectral Data<<<<<
177.33	0.0000E00
177.55	0.0000E00
177.77	0.0000E00
177.99	0.0000E00
178.21	0.0000E00
178.43	0.0000E00
178.64	-0.0000E00
178.86	0.0000E00
179.08	0.0000E00
179.30	0.0000E00
179.52	0.0000E00
179.74	0.0000E00
179.96	0.0000E00
180.18	0.0000E00
180.39	-0.0000E00
180.61	0.0000E00
180.83	0.0000E00
181.05	0.0000E00
181.27	0.0000E00
181.49	0.0000E00
181.71	0.0000E00
181.92	0.0000E00
182.14	0.0000E00
182.36	0.0000E00
182.58	0.0000E00
182.80	0.0000E00
183.02	0.0000E00
183.23	0.0000E00
183.45	0.0000E00
183.67	0.0000E00
183.89	0.0000E00
184.11	0.0000E00
184.33	0.0000E00
184.55	0.0000E00
184.76	0.0000E00
184.98	0.0000E00
185.20	0.0000E00
185.42	0.0000E00
185.64	0.0000E00
185.86	0.0000E00
186.07	0.0000E00
186.29	0.0000E00
186.51	0.0000E00
186.73	0.0000E00
186.95	0.0000E00
187.17	0.0000E00
187.38	0.0000E00
187.60	0.0000E00
187.82	0.0000E00
188.04	0.0000E00
188.26	0.0000E00
188.47	0.0000E00
188.69	0.0000E00
188.91	0.0000E00
189.13	0.0000E00
189.35	0.0000E00
189.57	0.0000E00
189.78	0.0000E00
190.00	0.0000E00
190.22	0.0000E00
190.44	0.0000E00
190.66	0.0000E00
190.87	0.0000E00
191.09	0.0000E00
191.31	0.0000E00
191.53	-0.0000E00
191.75	0.0000E00
191.97	0.0000E00
192.18	0.0000E00
192.40	0.0000E00
192.62	0.0000E00
192.84	0.0000E00
193.06	0.0000E00
193.27	0.0000E00
193.49	0.0000E00
193.71	0.0000E00
193.93	0.0000E00
194.15	0.0000E00
194.36	0.0000E00
194.58	0.0000E00
194.80	0.0000E00
195.02	0.0000E00
195.23	0.0000E00
195.45	0.0000E00
195.67	0.0000E00
195.89	0.0000E00
196.11	0.0000E00
196.32	0.0000E00
196.54	0.0000E00
196.76	0.0000E00
196.98	0.0000E00
197.20	0.0000E00
197.41	0.0000E00
197.63	0.0000E00
197.85	0.0000E00
198.07	0.0000E00
198.28	0.0000E00
198.50	0.0000E00
198.72	0.0000E00
198.94	0.0000E00
199.16	0.0000E00
199.37	0.0000E00
199.59	0.0000E00
199.81	0.0000E00
200.03	0.0000E00
200.24	0.0000E00
200.46	0.0000E00
200.68	0.0000E00
200.90	0.0000E00
201.11	0.0000E00
201.33	0.0000E00
201.55	0.0000E00
201.77	0.0000E00
201.98	0.0000E00
202.20	0.0000E00
202.42	0.0000E00
202.64	0.0000E00
202.86	0.0000E00
203.07	0.0000E00
203.29	0.0000E00
203.51	0.0000E00
203.73	0.0000E00
203.94	0.0000E00
204.16	0.0000E00
204.38	0.0000E00
204.60	0.0000E00
204.81	0.0000E00
205.03	0.0000E00
205.25	0.0000E00
205.46	0.0000E00
205.68	0.0000E00
205.90	0.0000E00
206.12	0.0000E00
206.33	0.0000E00
206.55	0.0000E00
206.77	0.0000E00
206.99	0.0000E00
207.20	0.0000E00
207.42	0.0000E00
207.64	0.0000E00
207.86	0.0000E00
208.07	0.0000E00
208.29	0.0000E00
208.51	0.0000E00
208.72	0.0000E00
208.94	0.0000E00
209.16	0.0000E00
209.38	0.0000E00
209.59	0.0000E00
209.81	0.0000E00
210.03	0.0000E00
210.25	0.0000E00
210.46	0.0000E00
210.68	0.0000E00
210.90	0.0000E00
211.11	0.0000E00
211.33	0.0000E00
211.55	0.0000E00
211.77	0.0000E00
211.98	0.0000E00
212.20	0.0000E00
212.42	0.0000E00
212.63	0.0000E00
212.85	0.0000E00
213.07	0.0000E00
213.29	0.0000E00
213.50	0.0000E00
213.72	0.0000E00
213.94	0.0000E00
214.15	0.0000E00
214.37	0.0000E00
214.59	0.0000E00
214.80	0.0000E00
215.02	0.0000E00
215.24	0.0000E00
215.45	0.0000E00
215.67	0.0000E00
215.89	0.0000E00
216.11	0.0000E00
216.32	0.0000E00
216.54	0.0000E00
216.76	0.0000E00
216.97	0.0000E00
217.19	0.0000E00
217.41	0.0000E00
217.62	0.0000E00
217.84	0.0000E00
218.06	0.0000E00
218.27	0.0000E00
218.49	0.0000E00
218.71	0.0000E00
218.92	0.0000E00
219.14	0.0000E00
219.36	0.0000E00
219.57	0.0000E00
219.79	0.0000E00
220.01	0.0000E00
220.22	0.0000E00
220.44	0.0000E00
220.66	0.0000E00
220.88	0.0000E00
221.09	0.0000E00
221.31	0.0000E00
221.53	0.0000E00
221.74	0.0000E00
221.96	0.0000E00
222.17	0.0000E00
222.39	0.0000E00
222.61	0.0000E00
222.82	0.0000E00
223.04	0.0000E00
223.26	0.0000E00
223.47	0.0000E00
223.69	0.0000E00
223.91	0.0000E00
224.12	0.0000E00
224.34	0.0000E00
224.56	0.0000E00
224.77	0.0000E00
224.99	0.0000E00
225.21	0.0000E00
225.42	0.0000E00
225.64	0.0000E00
225.86	0.0000E00
226.07	0.0000E00
226.29	0.0000E00
226.50	0.0000E00
226.72	0.0000E00
226.94	0.0000E00
227.15	0.0000E00
227.37	0.0000E00
227.59	0.0000E00
227.80	0.0000E00
228.02	0.0000E00
228.24	0.0000E00
228.45	0.0000E00
228.67	0.0000E00
228.88	0.0000E00
229.10	0.0000E00
229.32	0.0000E00
229.53	0.0000E00
229.75	0.0000E00
229.97	0.0000E00
230.18	0.0000E00
230.40	0.0000E00
230.61	0.0000E00
230.83	0.0000E00
231.05	0.0000E00
231.26	0.0000E00
231.48	0.0000E00
231.70	0.0000E00
231.91	0.0000E00
232.13	0.0000E00
232.34	0.0000E00
232.56	0.0000E00
232.78	0.0000E00
232.99	0.0000E00
233.21	0.0000E00
233.42	0.0000E00
233.64	0.0000E00
233.86	0.0000E00
234.07	0.0000E00
234.29	0.0000E00
234.50	0.0000E00
234.72	0.0000E00
234.94	0.0000E00
235.15	0.0000E00
235.37	0.0000E00
235.58	0.0000E00
235.80	0.0000E00
236.02	0.0000E00
236.23	0.0000E00
236.45	0.0000E00
236.66	0.0000E00
236.88	0.0000E00
237.10	0.0000E00
237.31	0.0000E00
237.53	0.0000E00
237.74	0.0000E00
237.96	0.0000E00
238.17	0.0000E00
238.39	0.0000E00
238.61	0.0000E00
238.82	0.0000E00
239.04	0.0000E00
239.25	0.0000E00
239.47	0.0000E00
239.69	0.0000E00
239.90	0.0000E00
240.12	0.0000E00
240.33	0.0000E00
240.55	0.0000E00
240.76	0.0000E00
240.98	0.0000E00
241.20	0.0000E00
241.41	0.0000E00
241.63	0.0000E00
241.84	0.0000E00
242.06	0.0000E00
242.27	0.0000E00
242.49	0.0000E00
242.70	0.0000E00
242.92	0.0000E00
243.14	0.0000E00
243.35	0.0000E00
243.57	0.0000E00
243.78	0.0000E00
244.00	0.0000E00
244.21	0.0000E00
244.43	0.0000E00
244.64	0.0000E00
244.86	0.0000E00
245.08	0.0000E00
245.29	0.0000E00
245.51	0.0000E00
245.72	0.0000E00
245.94	0.0000E00
246.15	0.0000E00
246.37	0.0000E00
246.58	0.0000E00
246.80	0.0000E00
247.01	0.0000E00
247.23	0.0000E00
247.45	0.0000E00
247.66	0.0000E00
247.88	0.0000E00
248.09	0.0000E00
248.31	0.0000E00
248.52	0.0000E00
248.74	0.0000E00
248.95	0.0000E00
249.17	0.0000E00
249.38	0.0000E00
249.60	0.0000E00
249.81	0.0000E00
250.03	0.0000E00
250.24	0.0000E00
250.46	0.0000E00
250.67	0.0000E00
250.89	0.0000E00
251.10	0.0000E00
251.32	0.0000E00
251.53	0.0000E00
251.75	0.0000E00
251.97	0.0000E00
252.18	0.0000E00
252.40	0.0000E00
252.61	0.0000E00
252.83	0.0000E00
253.04	0.0000E00
253.26	0.0000E00
253.47	0.0000E00
253.69	0.0000E00
253.90	0.0000E00
254.12	0.0000E00
254.33	0.0000E00
254.55	0.0000E00
254.76	0.0000E00
254.98	0.0000E00
255.19	0.0000E00
255.41	0.0000E00
255.62	0.0000E00
255.84	0.0000E00
256.05	0.0000E00
256.27	0.0000E00
256.48	0.0000E00
256.70	0.0000E00
256.91	0.0000E00
257.13	0.0000E00
257.34	0.0000E00
257.55	0.0000E00
257.77	0.0000E00
257.98	0.0000E00
258.20	0.0000E00
258.41	0.0000E00
258.63	0.0000E00
258.84	0.0000E00
259.06	0.0000E00
259.27	0.0000E00
259.49	0.0000E00
259.70	0.0000E00
259.92	0.0000E00
260.13	0.0000E00
260.35	0.0000E00
260.56	0.0000E00
260.78	0.0000E00
260.99	0.0000E00
261.21	0.0000E00
261.42	0.0000E00
261.63	0.0000E00
261.85	0.0000E00
262.06	0.0000E00
262.28	0.0000E00
262.49	0.0000E00
262.71	0.0000E00
262.92	0.0000E00
263.14	0.0000E00
263.35	0.0000E00
263.57	0.0000E00
263.78	0.0000E00
264.00	0.0000E00
264.21	0.0000E00
264.42	0.0000E00
264.64	0.0000E00
264.85	0.0000E00
265.07	0.0000E00
265.28	0.0000E00
265.50	0.0000E00
265.71	0.0000E00
265.93	0.0000E00
266.14	0.0000E00
266.35	0.0000E00
266.57	0.0000E00
266.78	0.0000E00
267.00	0.0000E00
267.21	0.0000E00
267.43	0.0000E00
267.64	0.0000E00
267.85	0.0000E00
268.07	0.0000E00
268.28	0.0000E00
268.50	0.0000E00
268.71	0.0000E00
268.93	0.0000E00
269.14	0.0000E00
269.35	0.0000E00
269.57	0.0000E00
269.78	0.0000E00
270.00	0.0000E00
270.21	0.0000E00
270.43	0.0000E00
270.64	0.0000E00
270.85	0.0000E00
271.07	0.0000E00
271.28	0.0000E00
271.50	0.0000E00
271.71	0.0000E00
271.92	0.0000E00
272.14	0.0000E00
272.35	0.0000E00
272.57	0.0000E00
272.78	0.0000E00
272.99	0.0000E00
273.21	0.0000E00
273.42	0.0000E00
273.64	0.0000E00
273.85	0.0000E00
274.07	0.0000E00
274.28	0.0000E00
274.49	0.0000E00
274.71	0.0000E00
274.92	0.0000E00
275.13	0.0000E00
275.35	0.0000E00
275.56	0.0000E00
275.78	0.0000E00
275.99	0.0000E00
276.20	0.0000E00
276.42	0.0000E00
276.63	0.0000E00
276.85	0.0000E00
277.06	0.0000E00
277.27	0.0000E00
277.49	0.0000E00
277.70	0.0000E00
277.92	0.0000E00
278.13	0.0000E00
278.34	0.0000E00
278.56	0.0000E00
278.77	0.0000E00
278.98	0.0000E00
279.20	0.0000E00
279.41	0.0000E00
279.63	0.0000E00
279.84	0.0000E00
280.05	0.0000E00
280.27	0.0000E00
280.48	0.0000E00
280.69	0.0000E00
280.91	0.0000E00
281.12	0.0000E00
281.33	0.0000E00
281.55	0.0000E00
281.76	0.0000E00
281.98	0.0000E00
282.19	0.0000E00
282.40	0.0000E00
282.62	0.0000E00
282.83	0.0000E00
283.04	0.0000E00
283.26	0.0000E00
283.47	0.0000E00
283.68	0.0000E00
283.90	0.0000E00
284.11	0.0000E00
284.32	0.0000E00
284.54	0.0000E00
284.75	0.0000E00
284.96	0.0000E00
285.18	0.0000E00
285.39	0.0000E00
285.60	0.0000E00
285.82	0.0000E00
286.03	0.0000E00
286.24	0.0000E00
286.46	0.0000E00
286.67	0.0000E00
286.88	0.0000E00
287.10	0.0000E00
287.31	0.0000E00
287.52	0.0000E00
287.74	0.0000E00
287.95	0.0000E00
288.16	0.0000E00
288.38	0.0000E00
288.59	0.0000E00
288.80	0.0000E00
289.02	0.0000E00
289.23	0.0000E00
289.44	0.0000E00
289.66	0.0000E00
289.87	0.0000E00
290.08	0.0000E00
290.30	0.0000E00
290.51	0.0000E00
290.72	0.0000E00
290.94	0.0000E00
291.15	0.0000E00
291.36	0.0000E00
291.57	0.0000E00
291.79	0.0000E00
292.00	0.0000E00
292.21	0.0000E00
292.43	0.0000E00
292.64	0.0000E00
292.85	0.0000E00
293.07	0.0000E00
293.28	0.0000E00
293.49	0.0000E00
293.70	0.0000E00
293.92	0.0000E00
294.13	0.0000E00
294.34	0.0000E00
294.56	0.0000E00
294.77	0.0000E00
294.98	0.0000E00
295.20	0.0000E00
295.41	0.0000E00
295.62	0.0000E00
295.83	0.0000E00
296.05	0.0000E00
296.26	0.0000E00
296.47	0.0000E00
296.69	0.0000E00
296.90	0.0000E00
297.11	0.0000E00
297.32	0.0000E00
297.54	0.0000E00
297.75	0.0000E00
297.96	0.0000E00
298.17	0.0000E00
298.39	0.0000E00
298.60	0.0000E00
298.81	0.0000E00
299.03	0.0000E00
299.24	0.0000E00
299.45	0.0000E00
299.66	0.0000E00
299.88	0.0000E00
300.09	1.8430E-01
300.30	1.6677E-01
300.51	2.2122E-01
300.73	1.7369E-01
300.94	1.8585E-01
301.15	2.1140E-01
301.36	1.6920E-01
301.58	1.9070E-01
301.79	2.7330E-01
302.00	2.0091E-01
302.21	1.8736E-01
302.43	2.3829E-01
302.64	1.9571E-01
302.85	2.4114E-01
303.06	1.9226E-01
303.28	2.3701E-01
303.49	2.0579E-01
303.70	2.6926E-01
303.91	2.1852E-01
304.13	2.1018E-01
304.34	2.3697E-01
304.55	2.8054E-01
304.76	2.0295E-01
304.98	2.2413E-01
305.19	2.7301E-01
305.40	2.2244E-01
305.61	2.6652E-01
305.82	2.4317E-01
306.04	2.8580E-01
306.25	2.3490E-01
306.46	3.1552E-01
306.67	2.6312E-01
306.89	2.7603E-01
307.10	3.1211E-01
307.31	3.0895E-01
307.52	2.9389E-01
307.74	3.4103E-01
307.95	3.3713E-01
308.16	2.6017E-01
308.37	3.1998E-01
308.58	3.1061E-01
308.80	3.5363E-01
309.01	3.4749E-01
309.22	2.9615E-01
309.43	3.2331E-01
309.64	3.6848E-01
309.86	4.0192E-01
310.07	3.6348E-01
310.28	3.8266E-01
310.49	3.9479E-01
310.70	3.5230E-01
310.92	4.0369E-01
311.13	3.9202E-01
311.34	4.0037E-01
311.55	4.1155E-01
311.76	4.1001E-01
311.98	4.8290E-01
312.19	4.2302E-01
312.40	4.0787E-01
312.61	4.3088E-01
312.82	4.6435E-01
313.04	4.3380E-01
313.25	4.8123E-01
313.46	4.4543E-01
313.67	4.4872E-01
313.88	4.7026E-01
314.10	4.5825E-01
314.31	4.6933E-01
314.52	4.8327E-01
314.73	5.0340E-01
314.94	5.3895E-01
315.16	5.4539E-01
315.37	5.8433E-01
315.58	5.0232E-01
315.79	5.4372E-01
316.00	5.5629E-01
316.21	5.7955E-01
316.43	4.9361E-01
316.64	5.2520E-01
316.85	5.1967E-01
317.06	5.6011E-01
317.27	5.9004E-01
317.48	5.4744E-01
317.70	5.6607E-01
317.91	5.6485E-01
318.12	6.0700E-01
318.33	5.4196E-01
318.54	5.6787E-01
318.75	5.7876E-01
318.97	6.2109E-01
319.18	5.8460E-01
319.39	5.7319E-01
319.60	5.9166E-01
319.81	6.2516E-01
320.02	5.9296E-01
320.24	6.0723E-01
320.45	6.3587E-01
320.66	5.8714E-01
320.87	6.2515E-01
321.08	6.6782E-01
321.29	6.5650E-01
321.50	6.2624E-01
321.72	6.0167E-01
321.93	6.6676E-01
322.14	6.1718E-01
322.35	6.7863E-01
322.56	6.9392E-01
322.77	7.2136E-01
322.98	6.5782E-01
323.20	7.2239E-01
323.41	6.5329E-01
323.62	6.5640E-01
323.83	7.1561E-01
324.04	6.7613E-01
324.25	6.7858E-01
324.46	7.1241E-01
324.67	7.2803E-01
324.89	7.1434E-01
325.10	7.1497E-01
325.31	7.8616E-01
325.52	7.6148E-01
325.73	7.3748E-01
325.94	7.6682E-01
326.15	7.5076E-01
326.36	8.4881E-01
326.58	8.7829E-01
326.79	8.6424E-01
327.00	7.7446E-01
327.21	8.7965E-01
327.42	8.9590E-01
327.63	9.0406E-01
327.84	8.8260E-01
328.05	9.1219E-01
328.26	8.2372E-01
328.48	8.9238E-01
328.69	9.3088E-01
328.90	9.0517E-01
329.11	9.1546E-01
329.32	9.2171E-01
329.53	8.9593E-01
329.74	9.2957E-01
329.95	9.7396E-01
330.16	9.6455E-01
330.37	9.3461E-01
330.59	1.0298E00
330.80	9.7654E-01
331.01	9.8391E-01
331.22	9.8133E-01
331.43	9.2983E-01
331.64	9.2674E-01
331.85	1.0075E00
332.06	9.8179E-01
332.27	9.3208E-01
332.48	1.0120E00
332.69	1.0303E00
332.91	1.0103E00
333.12	9.9915E-01
333.33	1.0569E00
333.54	9.4479E-01
333.75	9.2191E-01
333.96	9.5266E-01
334.17	9.3035E-01
334.38	9.3788E-01
334.59	9.6301E-01
334.80	9.6794E-01
335.01	9.5323E-01
335.22	9.1803E-01
335.43	9.0920E-01
335.64	9.2768E-01
335.86	9.4717E-01
336.07	9.4568E-01
336.28	8.8657E-01
336.49	9.6557E-01
336.70	9.0814E-01
336.91	9.0434E-01
337.12	8.9284E-01
337.33	9.6442E-01
337.54	9.1984E-01
337.75	9.2090E-01
337.96	9.8636E-01
338.17	9.9732E-01
338.38	9.3909E-01
338.59	1.0221E00
338.80	9.3892E-01
339.01	1.0391E00
339.22	1.0415E00
339.43	1.0453E00
339.65	1.0228E00
339.86	1.0063E00
340.07	9.9911E-01
340.28	1.0371E00
340.49	1.0428E00
340.70	1.0478E00
340.91	9.9513E-01
341.12	9.7382E-01
341.33	1.0383E00
341.54	1.0614E00
341.75	1.0126E00
341.96	1.0288E00
342.17	1.0405E00
342.38	9.9839E-01
342.59	1.0115E00
342.80	9.6719E-01
343.01	9.9222E-01
343.22	9.8870E-01
343.43	9.6994E-01
343.64	9.4522E-01
343.85	9.8578E-01
344.06	9.1749E-01
344.27	9.6566E-01
344.48	1.0027E00
344.69	9.6037E-01
344.90	9.6031E-01
345.11	9.4875E-01
345.32	9.4459E-01
345.53	9.0540E-01
345.74	9.7660E-01
345.95	9.1351E-01
346.16	9.5924E-01
346.37	9.5583E-01
346.58	9.5700E-01
346.79	9.2690E-01
347.00	9.7864E-01
347.21	9.8647E-01
347.42	9.4496E-01
347.63	9.1867E-01
347.84	9.6082E-01
348.05	9.8785E-01
348.26	9.5996E-01
348.47	9.8304E-01
348.68	9.8010E-01
348.89	9.3403E-01
349.10	9.8915E-01
349.31	1.0138E00
349.52	9.8789E-01
349.73	9.9987E-01
349.94	1.0112E00
350.15	9.9099E-01
350.36	1.0673E00
350.57	1.0592E00
350.78	1.0738E00
350.99	1.0802E00
351.20	1.0610E00
351.41	1.0961E00
351.62	1.0801E00
351.83	1.0984E00
352.04	1.1001E00
352.25	1.1367E00
352.46	1.1201E00
352.67	1.1065E00
352.88	1.1780E00
353.09	1.0701E00
353.30	1.1306E00
353.51	1.1403E00
353.72	1.1876E00
353.93	1.1372E00
354.14	1.1193E00
354.35	1.1889E00
354.56	1.1379E00
354.77	1.2019E00
354.98	1.0955E00
355.19	1.1179E00
355.39	1.1247E00
355.60	1.1046E00
355.81	1.1199E00
356.02	1.1311E00
356.23	1.0633E00
356.44	1.0443E00
356.65	1.1169E00
356.86	1.0814E00
357.07	1.0755E00
357.28	1.1137E00
357.49	1.0971E00
357.70	1.1208E00
357.91	1.0686E00
358.12	1.0721E00
358.33	1.1195E00
358.54	1.1404E00
358.75	1.1260E00
358.96	1.1706E00
359.16	1.1131E00
359.37	1.2108E00
359.58	1.1998E00
359.79	1.1912E00
360.00	1.1996E00
360.21	1.2267E00
360.42	1.2266E00
360.63	1.3361E00
360.84	1.2983E00
361.05	1.2299E00
361.26	1.2891E00
361.47	1.3419E00
361.68	1.3110E00
361.88	1.3490E00
362.09	1.3269E00
362.30	1.3792E00
362.51	1.3684E00
362.72	1.4444E00
362.93	1.4154E00
363.14	1.4337E00
363.35	1.4291E00
363.56	1.4367E00
363.77	1.5014E00
363.98	1.4971E00
364.18	1.5445E00
364.39	1.5470E00
364.60	1.5274E00
364.81	1.5495E00
365.02	1.5757E00
365.23	1.6020E00
365.44	1.6194E00
365.65	1.6246E00
365.86	1.5861E00
366.07	1.6803E00
366.27	1.6558E00
366.48	1.6843E00
366.69	1.6660E00
366.90	1.7146E00
367.11	1.7039E00
367.32	1.7172E00
367.53	1.6866E00
367.74	1.6692E00
367.95	1.6768E00
368.15	1.7097E00
368.36	1.7355E00
368.57	1.6730E00
368.78	1.7740E00
368.99	1.7178E00
369.20	1.7157E00
369.41	1.7430E00
369.62	1.7144E00
369.82	1.7474E00
370.03	1.7012E00
370.24	1.7073E00
370.45	1.6765E00
370.66	1.6418E00
370.87	1.6251E00
371.08	1.6307E00
371.28	1.6189E00
371.49	1.6110E00
371.70	1.5976E00
371.91	1.5928E00
372.12	1.5563E00
372.33	1.5462E00
372.54	1.5604E00
372.74	1.5463E00
372.95	1.4824E00
373.16	1.5473E00
373.37	1.5539E00
373.58	1.4781E00
373.79	1.5391E00
374.00	1.5265E00
374.20	1.5928E00
374.41	1.5870E00
374.62	1.5709E00
374.83	1.5854E00
375.04	1.6104E00
375.25	1.6368E00
375.45	1.5740E00
375.66	1.6729E00
375.87	1.6781E00
376.08	1.7042E00
376.29	1.7105E00
376.50	1.7134E00
376.70	1.7135E00
376.91	1.7508E00
377.12	1.7676E00
377.33	1.7196E00
377.54	1.7420E00
377.75	1.7902E00
377.95	1.7596E00
378.16	1.7828E00
378.37	1.7428E00
378.58	1.7788E00
378.79	1.7023E00
379.00	1.7689E00
379.20	1.7049E00
379.41	1.7112E00
379.62	1.7014E00
379.83	1.6555E00
380.04	1.6473E00
380.24	1.6066E00
380.45	1.5556E00
380.66	1.5498E00
380.87	1.5577E00
381.08	1.5515E00
381.28	1.4938E00
381.49	1.5129E00
381.70	1.4593E00
381.91	1.4594E00
382.12	1.4766E00
382.32	1.4358E00
382.53	1.4583E00
382.74	1.4172E00
382.95	1.4358E00
383.16	1.4507E00
383.36	1.3861E00
383.57	1.4498E00
383.78	1.4741E00
383.99	1.4483E00
384.20	1.4708E00
384.40	1.4870E00
384.61	1.5296E00
384.82	1.5551E00
385.03	1.5429E00
385.23	1.5714E00
385.44	1.5893E00
385.65	1.6247E00
385.86	1.5915E00
386.07	1.6969E00
386.27	1.6093E00
386.48	1.6644E00
386.69	1.7103E00
386.90	1.6378E00
387.10	1.7103E00
387.31	1.7642E00
387.52	1.7508E00
387.73	1.7992E00
387.94	1.8434E00
388.14	1.7968E00
388.35	1.8388E00
388.56	1.9331E00
388.77	1.9095E00
388.97	1.9305E00
389.18	1.9695E00
389.39	1.9189E00
389.60	1.9228E00
389.80	1.9555E00
390.01	1.9331E00
390.22	1.9214E00
390.43	1.8555E00
390.63	1.8656E00
390.84	1.8559E00
391.05	1.9066E00
391.26	1.8455E00
391.46	1.8283E00
391.67	1.8178E00
391.88	1.7604E00
392.09	1.7530E00
392.29	1.7989E00
392.50	1.7473E00
392.71	1.7478E00
392.92	1.7536E00
393.12	1.7329E00
393.33	1.7419E00
393.54	1.6975E00
393.74	1.6712E00
393.95	1.6971E00
394.16	1.7445E00
394.37	1.7259E00
394.57	1.7458E00
394.78	1.7975E00
394.99	1.7986E00
395.19	1.8153E00
395.40	1.8338E00
395.61	1.8575E00
395.82	1.9232E00
396.02	1.9269E00
396.23	1.9890E00
396.44	2.0233E00
396.65	2.0311E00
396.85	2.1137E00
397.06	2.1434E00
397.27	2.2028E00
397.47	2.2759E00
397.68	2.3025E00
397.89	2.3394E00
398.09	2.3833E00
398.30	2.4702E00
398.51	2.4896E00
398.72	2.5750E00
398.92	2.6533E00
399.13	2.6974E00
399.34	2.7628E00
399.54	2.8029E00
399.75	2.8173E00
399.96	2.8137E00
400.16	2.8381E00
400.37	2.8968E00
400.58	2.9098E00
400.78	2.9382E00
400.99	2.9455E00
401.20	2.9980E00
401.41	2.9954E00
401.61	2.9651E00
401.82	2.9998E00
402.03	2.9763E00
402.23	2.9746E00
402.44	3.0159E00
402.65	2.9876E00
402.85	2.9922E00
403.06	2.9792E00
403.27	2.9879E00
403.47	2.9700E00
403.68	2.9373E00
403.89	2.9660E00
404.09	2.9345E00
404.30	2.9054E00
404.51	2.9638E00
404.71	2.9600E00
404.92	2.9885E00
405.13	2.9034E00
405.33	2.9352E00
405.54	2.9449E00
405.75	2.9588E00
405.95	2.9574E00
406.16	2.9088E00
406.37	2.9604E00
406.57	2.9669E00
406.78	2.9875E00
406.99	2.9812E00
407.19	3.0074E00
407.40	3.0390E00
407.60	3.0384E00
407.81	3.0432E00
408.02	3.0158E00
408.22	3.0362E00
408.43	3.0848E00
408.64	3.0798E00
408.84	3.0767E00
409.05	3.0474E00
409.26	3.1178E00
409.46	3.1400E00
409.67	3.1031E00
409.87	3.1349E00
410.08	3.1327E00
410.29	3.1819E00
410.49	3.1267E00
410.70	3.1944E00
410.91	3.1906E00
411.11	3.2314E00
411.32	3.2283E00
411.52	3.1915E00
411.73	3.2626E00
411.94	3.2655E00
412.14	3.2901E00
412.35	3.2708E00
412.56	3.3130E00
412.76	3.3247E00
412.97	3.3029E00
413.17	3.3308E00
413.38	3.3529E00
413.59	3.3129E00
413.79	3.3323E00
414.00	3.3532E00
414.20	3.3610E00
414.41	3.3160E00
414.62	3.3574E00
414.82	3.3286E00
415.03	3.2922E00
415.23	3.3476E00
415.44	3.3045E00
415.65	3.3342E00
415.85	3.3017E00
416.06	3.3376E00
416.26	3.3149E00
416.47	3.3246E00
416.68	3.3457E00
416.88	3.3557E00
417.09	3.2602E00
417.29	3.3101E00
417.50	3.3308E00
417.71	3.3280E00
417.91	3.3178E00
418.12	3.3188E00
418.32	3.3556E00
418.53	3.3585E00
418.73	3.3221E00
418.94	3.3253E00
419.15	3.3181E00
419.35	3.3782E00
419.56	3.3463E00
419.76	3.3037E00
419.97	3.3779E00
420.17	3.3549E00
420.38	3.2991E00
420.59	3.3756E00
420.79	3.3759E00
421.00	3.3394E00
421.20	3.2991E00
421.41	3.3385E00
421.61	3.3275E00
421.82	3.3497E00
422.02	3.3347E00
422.23	3.2685E00
422.44	3.3558E00
422.64	3.3075E00
422.85	3.3171E00
423.05	3.3270E00
423.26	3.3311E00
423.46	3.3273E00
423.67	3.3052E00
423.87	3.3108E00
424.08	3.3019E00
424.29	3.2976E00
424.49	3.3286E00
424.70	3.2718E00
424.90	3.3168E00
425.11	3.3114E00
425.31	3.3003E00
425.52	3.3008E00
425.72	3.2535E00
425.93	3.2506E00
426.13	3.2133E00
426.34	3.2039E00
426.54	3.1888E00
426.75	3.1772E00
426.95	3.1555E00
427.16	3.1382E00
427.36	3.1065E00
427.57	3.0701E00
427.78	3.0437E00
427.98	3.0365E00
428.19	3.0278E00
428.39	2.9883E00
428.60	2.9856E00
428.80	2.9830E00
429.01	3.0001E00
429.21	2.9442E00
429.42	3.0239E00
429.62	3.0149E00
429.83	2.9981E00
430.03	2.9759E00
430.24	3.0382E00
430.44	3.0116E00
430.65	3.0598E00
430.85	3.0896E00
431.06	3.0844E00
431.26	3.1514E00
431.47	3.1184E00
431.67	3.2262E00
431.88	3.2202E00
432.08	3.2540E00
432.29	3.2782E00
432.49	3.2774E00
432.70	3.2981E00
432.90	3.3750E00
433.11	3.3935E00
433.31	3.3471E00
433.52	3.4094E00
433.72	3.4141E00
433.93	3.4403E00
434.13	3.4474E00
434.34	3.5137E00
434.54	3.4677E00
434.74	3.4930E00
434.95	3.5193E00
435.15	3.5084E00
435.36	3.5306E00
435.56	3.5043E00
435.77	3.5446E00
435.97	3.5150E00
436.18	3.6094E00
436.38	3.5659E00
436.59	3.5497E00
436.79	3.5896E00
437.00	3.5862E00
437.20	3.5685E00
437.41	3.5645E00
437.61	3.5814E00
437.81	3.5809E00
438.02	3.5851E00
438.22	3.6185E00
438.43	3.5923E00
438.63	3.6650E00
438.84	3.6356E00
439.04	3.6575E00
439.25	3.6796E00
439.45	3.6738E00
439.66	3.6936E00
439.86	3.7241E00
440.06	3.7935E00
440.27	3.7671E00
440.47	3.7679E00
440.68	3.8509E00
440.88	3.8478E00
441.09	3.8975E00
441.29	3.9104E00
441.49	3.9213E00
441.70	3.9627E00
441.90	3.9582E00
442.11	3.9869E00
442.31	4.0085E00
442.52	3.9789E00
442.72	3.9792E00
442.92	3.9572E00
443.13	4.0023E00
443.33	3.9500E00
443.54	3.9911E00
443.74	3.9888E00
443.95	4.0204E00
444.15	4.0072E00
444.35	4.0381E00
444.56	4.0149E00
444.76	3.9984E00
444.97	4.0790E00
445.17	4.0615E00
445.37	4.1069E00
445.58	4.0550E00
445.78	4.0816E00
445.99	4.0547E00
446.19	4.0690E00
446.39	4.0901E00
446.60	4.0870E00
446.80	4.1043E00
447.01	4.1742E00
447.21	4.2179E00
447.41	4.1830E00
447.62	4.2397E00
447.82	4.2370E00
448.03	4.2697E00
448.23	4.2831E00
448.43	4.3042E00
448.64	4.3248E00
448.84	4.3294E00
449.05	4.3152E00
449.25	4.3421E00
449.45	4.3147E00
449.66	4.3279E00
449.86	4.3394E00
450.07	4.3042E00
450.27	4.3325E00
450.47	4.3184E00
450.68	4.3326E00
450.88	4.3105E00
451.08	4.3217E00
451.29	4.3155E00
451.49	4.3037E00
451.70	4.2900E00
451.90	4.2969E00
452.10	4.2882E00
452.31	4.2445E00
452.51	4.2830E00
452.71	4.2766E00
452.92	4.2668E00
453.12	4.2946E00
453.32	4.2779E00
453.53	4.2350E00
453.73	4.2491E00
453.93	4.2580E00
454.14	4.3141E00
454.34	4.3111E00
454.55	4.3282E00
454.75	4.3240E00
454.95	4.3054E00
455.16	4.3633E00
455.36	4.3250E00
455.56	4.3844E00
455.77	4.3850E00
455.97	4.3821E00
456.17	4.3712E00
456.38	4.3962E00
456.58	4.4266E00
456.78	4.3934E00
456.99	4.3609E00
457.19	4.3944E00
457.39	4.3914E00
457.60	4.4095E00
457.80	4.4055E00
458.00	4.3997E00
458.21	4.4391E00
458.41	4.4367E00
458.61	4.4191E00
458.82	4.4237E00
459.02	4.4105E00
459.22	4.4778E00
459.43	4.4729E00
459.63	4.4651E00
459.83	4.4551E00
460.03	4.4753E00
460.24	4.4911E00
460.44	4.4660E00
460.64	4.4512E00
460.85	4.4936E00
461.05	4.4882E00
461.25	4.4905E00
461.46	4.4783E00
461.66	4.4663E00
461.86	4.4937E00
462.07	4.5053E00
462.27	4.4956E00
462.47	4.5107E00
462.67	4.4779E00
462.88	4.4901E00
463.08	4.4471E00
463.28	4.4697E00
463.49	4.4877E00
463.69	4.4610E00
463.89	4.4618E00
464.09	4.4573E00
464.30	4.4256E00
464.50	4.4531E00
464.70	4.4526E00
464.91	4.3892E00
465.11	4.3951E00
465.31	4.3974E00
465.51	4.4290E00
465.72	4.4131E00
465.92	4.4045E00
466.12	4.3801E00
466.33	4.4064E00
466.53	4.3867E00
466.73	4.3725E00
466.93	4.3973E00
467.14	4.3720E00
467.34	4.4284E00
467.54	4.3996E00
467.74	4.4037E00
467.95	4.3983E00
468.15	4.3904E00
468.35	4.4190E00
468.55	4.4358E00
468.76	4.4345E00
468.96	4.3844E00
469.16	4.4303E00
469.37	4.4270E00
469.57	4.4335E00
469.77	4.4119E00
469.97	4.4383E00
470.18	4.4562E00
470.38	4.4652E00
470.58	4.4541E00
470.78	4.4738E00
470.99	4.4700E00
471.19	4.4604E00
471.39	4.4798E00
471.59	4.4573E00
471.79	4.4794E00
472.00	4.4866E00
472.20	4.5026E00
472.40	4.4756E00
472.60	4.4767E00
472.81	4.5158E00
473.01	4.5106E00
473.21	4.4819E00
473.41	4.4490E00
473.62	4.5074E00
473.82	4.5257E00
474.02	4.4945E00
474.22	4.4997E00
474.42	4.5514E00
474.63	4.5258E00
474.83	4.5144E00
475.03	4.5233E00
475.23	4.5420E00
475.44	4.5271E00
475.64	4.5386E00
475.84	4.5458E00
476.04	4.5408E00
476.24	4.5492E00
476.45	4.5634E00
476.65	4.5546E00
476.85	4.5564E00
477.05	4.5876E00
477.25	4.6051E00
477.46	4.5948E00
477.66	4.5925E00
477.86	4.6236E00
478.06	4.6314E00
478.26	4.6372E00
478.47	4.6297E00
478.67	4.6606E00
478.87	4.6319E00
479.07	4.6145E00
479.27	4.6389E00
479.47	4.6431E00
479.68	4.6420E00
479.88	4.6464E00
480.08	4.6458E00
480.28	4.6495E00
480.48	4.6501E00
480.69	4.6521E00
480.89	4.6344E00
481.09	4.6345E00
481.29	4.6540E00
481.49	4.5770E00
481.69	4.6204E00
481.90	4.5951E00
482.10	4.5816E00
482.30	4.5758E00
482.50	4.5416E00
482.70	4.5064E00
482.90	4.4870E00
483.11	4.4622E00
483.31	4.4421E00
483.51	4.3831E00
483.71	4.3687E00
483.91	4.3529E00
484.11	4.3324E00
484.32	4.3122E00
484.52	4.3028E00
484.72	4.2818E00
484.92	4.2603E00
485.12	4.2451E00
485.32	4.2321E00
485.52	4.2224E00
485.73	4.1994E00
485.93	4.1915E00
486.13	4.1990E00
486.33	4.2138E00
486.53	4.2339E00
486.73	4.2520E00
486.93	4.2554E00
487.14	4.2986E00
487.34	4.3121E00
487.54	4.3249E00
487.74	4.3513E00
487.94	4.3314E00
488.14	4.3740E00
488.34	4.3842E00
488.54	4.3914E00
488.75	4.4006E00
488.95	4.4177E00
489.15	4.4200E00
489.35	4.4227E00
489.55	4.4280E00
489.75	4.4434E00
489.95	4.4379E00
490.15	4.4438E00
490.36	4.4590E00
490.56	4.4547E00
490.76	4.4743E00
490.96	4.4696E00
491.16	4.4773E00
491.36	4.4737E00
491.56	4.4708E00
491.76	4.4490E00
491.96	4.4859E00
492.17	4.4854E00
492.37	4.5019E00
492.57	4.5191E00
492.77	4.5243E00
492.97	4.5470E00
493.17	4.5397E00
493.37	4.5477E00
493.57	4.5514E00
493.77	4.5597E00
493.97	4.5862E00
494.17	4.5740E00
494.38	4.5821E00
494.58	4.5750E00
494.78	4.5772E00
494.98	4.5797E00
495.18	4.5943E00
495.38	4.5915E00
495.58	4.5998E00
495.78	4.5970E00
495.98	4.6047E00
496.18	4.5969E00
496.38	4.5785E00
496.58	4.5578E00
496.78	4.5872E00
496.99	4.5597E00
497.19	4.5718E00
497.39	4.5720E00
497.59	4.5489E00
497.79	4.5216E00
497.99	4.5307E00
498.19	4.5282E00
498.39	4.5236E00
498.59	4.4977E00
498.79	4.4863E00
498.99	4.4796E00
499.19	4.4833E00
499.39	4.4791E00
499.59	4.4598E00
499.79	4.4494E00
499.99	4.4437E00
500.19	4.4554E00
500.40	4.4347E00
500.60	4.4451E00
500.80	4.4357E00
501.00	4.4240E00
501.20	4.4185E00
501.40	4.4388E00
501.60	4.4242E00
501.80	4.4287E00
502.00	4.4447E00
502.20	4.4406E00
502.40	4.4491E00
502.60	4.4413E00
502.80	4.4897E00
503.00	4.4855E00
503.20	4.4812E00
503.40	4.4824E00
503.60	4.4973E00
503.80	4.5218E00
504.00	4.5235E00
504.20	4.5443E00
504.40	4.5463E00
504.60	4.5650E00
504.80	4.5709E00
505.00	4.5732E00
505.20	4.5941E00
505.40	4.5894E00
505.60	4.5910E00
505.80	4.6024E00
506.00	4.6043E00
506.20	4.6040E00
506.40	4.6062E00
506.60	4.6085E00
506.80	4.5944E00
507.00	4.6062E00
507.20	4.6149E00
507.40	4.6254E00
507.60	4.6086E00
507.80	4.6205E00
508.00	4.6261E00
508.20	4.6426E00
508.40	4.6368E00
508.60	4.6265E00
508.80	4.6159E00
509.00	4.6544E00
509.20	4.6457E00
509.40	4.6401E00
509.60	4.6473E00
509.80	4.6368E00
510.00	4.6617E00
510.20	4.6563E00
510.40	4.6577E00
510.60	4.6417E00
510.80	4.6307E00
511.00	4.6299E00
511.20	4.6580E00
511.40	4.6375E00
511.60	4.6422E00
511.80	4.6499E00
512.00	4.6482E00
512.20	4.6537E00
512.40	4.6374E00
512.60	4.6385E00
512.80	4.6339E00
513.00	4.6466E00
513.20	4.6343E00
513.40	4.6131E00
513.59	4.5986E00
513.79	4.6111E00
513.99	4.5963E00
514.19	4.5926E00
514.39	4.5768E00
514.59	4.5872E00
514.79	4.5684E00
514.99	4.5631E00
515.19	4.5695E00
515.39	4.5701E00
515.59	4.5714E00
515.79	4.5440E00
515.99	4.5749E00
516.19	4.5717E00
516.39	4.5714E00
516.59	4.5849E00
516.79	4.6133E00
516.98	4.6022E00
517.18	4.6406E00
517.38	4.6581E00
517.58	4.6828E00
517.78	4.7096E00
517.98	4.7362E00
518.18	4.7719E00
518.38	4.8335E00
518.58	4.8460E00
518.78	4.8718E00
518.98	4.9063E00
519.18	4.9480E00
519.38	4.9936E00
519.57	5.0183E00
519.77	5.0356E00
519.97	5.0849E00
520.17	5.1074E00
520.37	5.1345E00
520.57	5.1734E00
520.77	5.2042E00
520.97	5.2262E00
521.17	5.2472E00
521.37	5.2850E00
521.57	5.3152E00
521.76	5.3218E00
521.96	5.3546E00
522.16	5.3684E00
522.36	5.4083E00
522.56	5.3860E00
522.76	5.4072E00
522.96	5.4391E00
523.16	5.4355E00
523.36	5.4584E00
523.55	5.4401E00
523.75	5.4520E00
523.95	5.4572E00
524.15	5.4482E00
524.35	5.4617E00
524.55	5.4702E00
524.75	5.4843E00
524.95	5.4942E00
525.14	5.4865E00
525.34	5.4868E00
525.54	5.4796E00
525.74	5.5038E00
525.94	5.5137E00
526.14	5.5398E00
526.34	5.5453E00
526.54	5.5726E00
526.73	5.5659E00
526.93	5.6149E00
527.13	5.6390E00
527.33	5.6664E00
527.53	5.7015E00
527.73	5.7182E00
527.93	5.7588E00
528.12	5.7646E00
528.32	5.8056E00
528.52	5.8520E00
528.72	5.8829E00
528.92	5.8881E00
529.12	5.9047E00
529.32	5.9286E00
529.51	5.9500E00
529.71	5.9673E00
529.91	5.9749E00
530.11	5.9955E00
530.31	6.0160E00
530.51	6.0012E00
530.70	6.0064E00
530.90	6.0287E00
531.10	6.0218E00
531.30	6.0358E00
531.50	6.0371E00
531.70	6.0489E00
531.89	6.0362E00
532.09	6.0473E00
532.29	6.0520E00
532.49	6.0781E00
532.69	6.0779E00
532.88	6.0809E00
533.08	6.0760E00
533.28	6.1045E00
533.48	6.1371E00
533.68	6.1360E00
533.88	6.1680E00
534.07	6.1759E00
534.27	6.1848E00
534.47	6.2118E00
534.67	6.1925E00
534.87	6.2299E00
535.06	6.2371E00
535.26	6.2328E00
535.46	6.2350E00
535.66	6.2823E00
535.86	6.2581E00
536.05	6.2639E00
536.25	6.2696E00
536.45	6.2696E00
536.65	6.2658E00
536.85	6.2542E00
537.04	6.2651E00
537.24	6.2882E00
537.44	6.2406E00
537.64	6.2246E00
537.83	6.2598E00
538.03	6.2642E00
538.23	6.2739E00
538.43	6.2683E00
538.63	6.2452E00
538.82	6.2554E00
539.02	6.2527E00
539.22	6.2724E00
539.42	6.2510E00
539.61	6.2706E00
539.81	6.2748E00
540.01	6.2626E00
540.21	6.2810E00
540.41	6.2847E00
540.60	6.3017E00
540.80	6.3117E00
541.00	6.3208E00
541.20	6.3508E00
541.39	6.3572E00
541.59	6.3700E00
541.79	6.3914E00
541.99	6.4209E00
542.18	6.4184E00
542.38	6.4355E00
542.58	6.4470E00
542.78	6.4718E00
542.97	6.4637E00
543.17	6.5009E00
543.37	6.4927E00
543.57	6.5383E00
543.76	6.5635E00
543.96	6.5635E00
544.16	6.5472E00
544.36	6.5675E00
544.55	6.6027E00
544.75	6.5971E00
544.95	6.6195E00
545.14	6.5860E00
545.34	6.6351E00
545.54	6.6204E00
545.74	6.6301E00
545.93	6.6519E00
546.13	6.6547E00
546.33	6.6457E00
546.53	6.6437E00
546.72	6.6822E00
546.92	6.6875E00
547.12	6.6767E00
547.31	6.6970E00
547.51	6.6949E00
547.71	6.7234E00
547.91	6.7316E00
548.10	6.7054E00
548.30	6.7313E00
548.50	6.7680E00
548.69	6.7681E00
548.89	6.7661E00
549.09	6.7740E00
549.29	6.7739E00
549.48	6.8249E00
549.68	6.7787E00
549.88	6.8199E00
550.07	6.8372E00
550.27	6.8399E00
550.47	6.7554E00
550.66	6.8845E00
550.86	6.8381E00
551.06	6.8957E00
551.25	6.8715E00
551.45	6.9164E00
551.65	6.9227E00
551.85	6.9422E00
552.04	6.8946E00
552.24	6.9384E00
552.44	6.9245E00
552.63	6.9288E00
552.83	6.9520E00
553.03	6.9349E00
553.22	6.9887E00
553.42	6.9644E00
553.62	7.0105E00
553.81	6.9807E00
554.01	7.0014E00
554.21	6.9739E00
554.40	6.9916E00
554.60	6.9812E00
554.80	6.9969E00
554.99	6.9942E00
555.19	6.9888E00
555.39	6.9919E00
555.58	6.9631E00
555.78	6.9695E00
555.98	6.9547E00
556.17	6.9463E00
556.37	6.9458E00
556.56	6.9447E00
556.76	6.9400E00
556.96	6.9213E00
557.15	6.9288E00
557.35	6.9167E00
557.55	6.9153E00
557.74	6.9129E00
557.94	6.9287E00
558.14	6.9436E00
558.33	6.9173E00
558.53	6.9182E00
558.73	6.9420E00
558.92	6.9195E00
559.12	6.9679E00
559.31	6.9751E00
559.51	6.9973E00
559.71	6.9795E00
559.90	7.0022E00
560.10	7.0155E00
560.30	7.0250E00
560.49	7.0236E00
560.69	7.0504E00
560.88	7.0765E00
561.08	7.0410E00
561.28	7.0560E00
561.47	7.0868E00
561.67	7.0957E00
561.86	7.0768E00
562.06	7.0951E00
562.26	7.1150E00
562.45	7.1000E00
562.65	7.1149E00
562.84	7.0839E00
563.04	7.1038E00
563.24	7.1094E00
563.43	7.1389E00
563.63	7.1436E00
563.82	7.1289E00
564.02	7.1504E00
564.22	7.1597E00
564.41	7.1250E00
564.61	7.1420E00
564.80	7.1510E00
565.00	7.1315E00
565.20	7.1616E00
565.39	7.1223E00
565.59	7.1045E00
565.78	7.1335E00
565.98	7.1128E00
566.18	7.1583E00
566.37	7.1402E00
566.57	7.1279E00
566.76	7.1176E00
566.96	7.1480E00
567.15	7.1172E00
567.35	7.1457E00
567.55	7.1204E00
567.74	7.1217E00
567.94	7.1028E00
568.13	7.1178E00
568.33	7.1383E00
568.52	7.1288E00
568.72	7.1103E00
568.91	7.1011E00
569.11	7.1099E00
569.31	7.1414E00
569.50	7.1115E00
569.70	7.1399E00
569.89	7.1382E00
570.09	7.1357E00
570.28	7.1344E00
570.48	7.1561E00
570.67	7.1927E00
570.87	7.1574E00
571.07	7.1716E00
571.26	7.2086E00
571.46	7.2157E00
571.65	7.2324E00
571.85	7.2540E00
572.04	7.2430E00
572.24	7.2794E00
572.43	7.2531E00
572.63	7.2898E00
572.82	7.2758E00
573.02	7.3029E00
573.21	7.2840E00
573.41	7.3075E00
573.60	7.3285E00
573.80	7.3189E00
573.99	7.3026E00
574.19	7.3329E00
574.38	7.3087E00
574.58	7.3153E00
574.78	7.2828E00
574.97	7.3185E00
575.17	7.3032E00
575.36	7.2920E00
575.56	7.2744E00
575.75	7.3195E00
575.95	7.2856E00
576.14	7.2781E00
576.34	7.3168E00
576.53	7.2936E00
576.73	7.3026E00
576.92	7.2806E00
577.12	7.3384E00
577.31	7.2854E00
577.51	7.3503E00
577.70	7.3343E00
577.90	7.3425E00
578.09	7.3658E00
578.29	7.3485E00
578.48	7.3909E00
578.68	7.3795E00
578.87	7.4378E00
579.06	7.4070E00
579.26	7.4421E00
579.45	7.4339E00
579.65	7.5006E00
579.84	7.4814E00
580.04	7.5191E00
580.23	7.5452E00
580.43	7.5105E00
580.62	7.5542E00
580.82	7.5718E00
581.01	7.5711E00
581.21	7.5760E00
581.40	7.5747E00
581.60	7.6205E00
581.79	7.6353E00
581.99	7.6153E00
582.18	7.6193E00
582.37	7.6415E00
582.57	7.6471E00
582.76	7.6660E00
582.96	7.6716E00
583.15	7.6602E00
583.35	7.6567E00
583.54	7.6617E00
583.74	7.6523E00
583.93	7.6333E00
584.12	7.6192E00
584.32	7.6648E00
584.51	7.6388E00
584.71	7.5988E00
584.90	7.5964E00
585.10	7.5936E00
585.29	7.5845E00
585.49	7.5701E00
585.68	7.5568E00
585.87	7.5189E00
586.07	7.4897E00
586.26	7.4633E00
586.46	7.4420E00
586.65	7.4096E00
586.85	7.3994E00
587.04	7.3373E00
587.23	7.3666E00
587.43	7.3418E00
587.62	7.2765E00
587.82	7.3137E00
588.01	7.2729E00
588.20	7.2726E00
588.40	7.2354E00
588.59	7.2490E00
588.79	7.2500E00
588.98	7.2638E00
589.18	7.2453E00
589.37	7.2741E00
589.56	7.2471E00
589.76	7.2574E00
589.95	7.3222E00
590.15	7.3196E00
590.34	7.3171E00
590.53	7.3828E00
590.73	7.3831E00
590.92	7.4075E00
591.11	7.4402E00
591.31	7.4583E00
591.50	7.4836E00
591.70	7.4808E00
591.89	7.5158E00
592.08	7.4872E00
592.28	7.4809E00
592.47	7.5387E00
592.67	7.5443E00
592.86	7.5605E00
593.05	7.5397E00
593.25	7.5854E00
593.44	7.5773E00
593.63	7.6284E00
593.83	7.6003E00
594.02	7.6601E00
594.22	7.6663E00
594.41	7.6950E00
594.60	7.6703E00
594.80	7.6793E00
594.99	7.6913E00
595.18	7.7042E00
595.38	7.6990E00
595.57	7.7288E00
595.76	7.7456E00
595.96	7.7550E00
596.15	7.7365E00
596.34	7.8268E00
596.54	7.8310E00
596.73	7.8247E00
596.93	7.8478E00
597.12	7.8350E00
597.31	7.8668E00
597.51	7.8578E00
597.70	7.8685E00
597.89	7.8632E00
598.09	7.8575E00
598.28	7.9269E00
598.47	7.8842E00
598.67	7.9033E00
598.86	7.8903E00
599.05	7.9474E00
599.25	7.9296E00
599.44	7.9559E00
599.63	7.9777E00
599.83	7.9556E00
600.02	7.9639E00
600.21	7.9788E00
600.41	7.9947E00
600.60	7.9709E00
600.79	8.0077E00
600.98	8.0273E00
601.18	8.0708E00
601.37	8.0315E00
601.56	8.0494E00
601.76	8.1183E00
601.95	8.0791E00
602.14	8.0970E00
602.34	8.1047E00
602.53	8.1448E00
602.72	8.1215E00
602.92	8.1624E00
603.11	8.1548E00
603.30	8.1927E00
603.49	8.1864E00
603.69	8.2418E00
603.88	8.2231E00
604.07	8.2487E00
604.27	8.2309E00
604.46	8.2168E00
604.65	8.2463E00
604.84	8.2474E00
605.04	8.2623E00
605.23	8.2509E00
605.42	8.2573E00
605.62	8.2738E00
605.81	8.2533E00
606.00	8.2573E00
606.19	8.2829E00
606.39	8.2843E00
606.58	8.2551E00
606.77	8.2639E00
606.97	8.2411E00
607.16	8.2730E00
607.35	8.2814E00
607.54	8.2570E00
607.74	8.2853E00
607.93	8.2959E00
608.12	8.2619E00
608.31	8.2798E00
608.51	8.2818E00
608.70	8.2628E00
608.89	8.2564E00
609.08	8.2443E00
609.28	8.2830E00
609.47	8.2895E00
609.66	8.2901E00
609.85	8.2994E00
610.05	8.3059E00
610.24	8.2811E00
610.43	8.2996E00
610.62	8.2938E00
610.82	8.2794E00
611.01	8.3040E00
611.20	8.2922E00
611.39	8.2975E00
611.59	8.2975E00
611.78	8.3270E00
611.97	8.3165E00
612.16	8.3526E00
612.35	8.3062E00
612.55	8.3118E00
612.74	8.3393E00
612.93	8.3354E00
613.12	8.2961E00
613.32	8.3144E00
613.51	8.3218E00
613.70	8.3286E00
613.89	8.3301E00
614.08	8.3453E00
614.28	8.3416E00
614.47	8.3324E00
614.66	8.3519E00
614.85	8.3828E00
615.04	8.3832E00
615.24	8.4324E00
615.43	8.4118E00
615.62	8.4115E00
615.81	8.4191E00
616.00	8.3940E00
616.20	8.4498E00
616.39	8.4849E00
616.58	8.4957E00
616.77	8.5193E00
616.96	8.5843E00
617.16	8.6004E00
617.35	8.6131E00
617.54	8.6162E00
617.73	8.6252E00
617.92	8.6598E00
618.12	8.7102E00
618.31	8.7210E00
618.50	8.7502E00
618.69	8.7504E00
618.88	8.8193E00
619.07	8.8185E00
619.27	8.8368E00
619.46	8.8643E00
619.65	8.9035E00
619.84	8.8789E00
620.03	8.8856E00
620.22	8.9307E00
620.42	8.8586E00
620.61	8.9552E00
620.80	8.9391E00
620.99	8.9368E00
621.18	8.9743E00
621.37	8.9353E00
621.57	8.8946E00
621.76	8.9514E00
621.95	8.9389E00
622.14	8.9074E00
622.33	8.8858E00
622.52	8.9092E00
622.71	8.9344E00
622.91	8.9466E00
623.10	8.9262E00
623.29	8.9224E00
623.48	8.9026E00
623.67	8.9328E00
623.86	8.9272E00
624.05	8.9270E00
624.25	8.9036E00
624.44	8.9428E00
624.63	8.9616E00
624.82	8.9405E00
625.01	8.9223E00
625.20	8.9627E00
625.39	8.9006E00
625.58	8.9443E00
625.78	8.9575E00
625.97	8.8958E00
626.16	8.9351E00
626.35	8.9321E00
626.54	8.9683E00
626.73	8.9659E00
626.92	8.9427E00
627.11	8.9383E00
627.31	8.9340E00
627.50	8.9283E00
627.69	8.9485E00
627.88	8.9683E00
628.07	8.8800E00
628.26	8.9276E00
628.45	8.9164E00
628.64	8.9345E00
628.83	8.9310E00
629.02	8.8804E00
629.22	8.9825E00
629.41	8.9249E00
629.60	8.8904E00
629.79	8.9725E00
629.98	8.9335E00
630.17	8.9570E00
630.36	8.9447E00
630.55	8.9507E00
630.74	8.9659E00
630.93	8.9936E00
631.12	8.9375E00
631.31	8.9445E00
631.51	8.9857E00
631.70	8.9871E00
631.89	8.9505E00
632.08	8.9641E00
632.27	8.9813E00
632.46	8.9707E00
632.65	8.9759E00
632.84	8.9454E00
633.03	9.0241E00
633.22	8.9924E00
633.41	9.0350E00
633.60	9.0331E00
633.79	9.0087E00
633.98	8.9713E00
634.17	9.0210E00
634.37	9.0314E00
634.56	9.0670E00
634.75	9.0166E00
634.94	9.0743E00
635.13	9.0581E00
635.32	9.0935E00
635.51	9.0997E00
635.70	9.0504E00
635.89	9.1380E00
636.08	9.0777E00
636.27	9.0547E00
636.46	9.0992E00
636.65	9.0745E00
636.84	9.0461E00
637.03	9.0914E00
637.22	9.0821E00
637.41	9.0625E00
637.60	9.0772E00
637.79	9.0729E00
637.98	9.0484E00
638.17	9.0525E00
638.36	9.0134E00
638.55	8.9788E00
638.74	8.9759E00
638.93	8.9820E00
639.12	8.9596E00
639.31	8.9629E00
639.50	8.9365E00
639.69	8.9277E00
639.88	8.9616E00
640.07	8.9226E00
640.26	8.9622E00
640.45	8.9484E00
640.64	8.9536E00
640.83	8.9422E00
641.02	8.9746E00
641.21	8.9269E00
641.40	8.8671E00
641.59	8.9306E00
641.78	8.9466E00
641.97	8.9410E00
642.16	8.9425E00
642.35	8.9256E00
642.54	8.9212E00
642.73	8.9001E00
642.92	8.8230E00
643.11	8.9182E00
643.30	8.9204E00
643.49	8.8753E00
643.68	8.8783E00
643.87	8.8275E00
644.06	8.8526E00
644.25	8.8133E00
644.44	8.8102E00
644.63	8.7875E00
644.82	8.7835E00
645.01	8.7910E00
645.20	8.7774E00
645.39	8.7415E00
645.58	8.7203E00
645.77	8.7100E00
645.96	8.7289E00
646.15	8.6953E00
646.34	8.6952E00
646.53	8.6749E00
646.72	8.6705E00
646.91	8.6198E00
647.10	8.6903E00
647.29	8.6318E00
647.47	8.6477E00
647.66	8.6097E00
647.85	8.5924E00
648.04	8.6021E00
648.23	8.6064E00
648.42	8.6746E00
648.61	8.5654E00
648.80	8.6178E00
648.99	8.6440E00
649.18	8.5897E00
649.37	8.6463E00
649.56	8.6332E00
649.75	8.6272E00
649.94	8.6876E00
650.13	8.6785E00
650.31	8.6920E00
650.50	8.6735E00
650.69	8.7062E00
650.88	8.6876E00
651.07	8.6968E00
651.26	8.7156E00
651.45	8.7660E00
651.64	8.7328E00
651.83	8.6876E00
652.02	8.7002E00
652.21	8.6542E00
652.40	8.6482E00
652.58	8.7069E00
652.77	8.5896E00
652.96	8.5461E00
653.15	8.5674E00
653.34	8.5339E00
653.53	8.4957E00
653.72	8.4570E00
653.91	8.3768E00
654.10	8.3679E00
654.29	8.3064E00
654.47	8.3538E00
654.66	8.2338E00
654.85	8.2369E00
655.04	8.1932E00
655.23	8.2181E00
655.42	8.1519E00
655.61	8.1885E00
655.80	8.1765E00
655.98	8.2180E00
656.17	8.2171E00
656.36	8.2473E00
656.55	8.2373E00
656.74	8.3256E00
656.93	8.3476E00
657.12	8.3921E00
657.31	8.3759E00
657.49	8.5012E00
657.68	8.5057E00
657.87	8.4880E00
658.06	8.6222E00
658.25	8.6023E00
658.44	8.6812E00
658.63	8.6865E00
658.81	8.6964E00
659.00	8.7617E00
659.19	8.7713E00
659.38	8.8686E00
659.57	8.8871E00
659.76	8.8589E00
659.95	8.9325E00
660.13	8.8651E00
660.32	8.9372E00
660.51	8.9344E00
660.70	8.9815E00
660.89	8.9602E00
661.08	8.9794E00
661.26	8.9683E00
661.45	9.0103E00
661.64	8.9947E00
661.83	8.9733E00
662.02	8.9980E00
662.21	9.0305E00
662.39	9.0423E00
662.58	9.0027E00
662.77	9.0764E00
662.96	9.0434E00
663.15	8.9972E00
663.33	9.0572E00
663.52	9.0139E00
663.71	9.0175E00
663.90	9.0332E00
664.09	8.9805E00
664.28	9.0228E00
664.46	8.9942E00
664.65	9.0047E00
664.84	8.9791E00
665.03	9.0268E00
665.22	9.0357E00
665.40	9.0462E00
665.59	9.0183E00
665.78	9.0297E00
665.97	9.0290E00
666.16	9.0600E00
666.34	9.0812E00
666.53	9.0216E00
666.72	9.0745E00
666.91	9.0396E00
667.09	9.0422E00
667.28	9.0727E00
667.47	9.0704E00
667.66	9.0437E00
667.85	9.0365E00
668.03	8.9161E00
668.22	9.0701E00
668.41	9.0422E00
668.60	8.9618E00
668.78	9.0627E00
668.97	9.0181E00
669.16	8.9889E00
669.35	9.0374E00
669.54	8.9668E00
669.72	9.0327E00
669.91	8.9880E00
670.10	9.0107E00
670.29	9.0207E00
670.47	9.0449E00
670.66	9.0702E00
670.85	9.0273E00
671.04	8.9859E00
671.22	8.9861E00
671.41	9.0227E00
671.60	9.0319E00
671.79	9.0366E00
671.97	9.0025E00
672.16	9.0773E00
672.35	9.0528E00
672.54	9.0570E00
672.72	9.0187E00
672.91	8.9921E00
673.10	9.0180E00
673.28	9.0064E00
673.47	9.0124E00
673.66	9.0218E00
673.85	9.0881E00
674.03	9.0489E00
674.22	9.0363E00
674.41	9.0082E00
674.60	9.0025E00
674.78	8.9510E00
674.97	8.9766E00
675.16	9.0932E00
675.34	9.0443E00
675.53	9.0024E00
675.72	8.9763E00
675.91	9.0875E00
676.09	9.0394E00
676.28	9.0727E00
676.47	9.0482E00
676.65	8.9911E00
676.84	9.0441E00
677.03	9.0774E00
677.22	9.0194E00
677.40	9.0684E00
677.59	9.0378E00
677.78	9.0137E00
677.96	9.0279E00
678.15	9.0626E00
678.34	9.1015E00
678.52	9.0145E00
678.71	9.0218E00
678.90	9.0385E00
679.08	9.0492E00
679.27	8.9999E00
679.46	9.0803E00
679.64	9.0361E00
679.83	9.0076E00
680.02	9.0095E00
680.21	8.9144E00
680.39	9.0229E00
680.58	8.9733E00
680.77	8.9446E00
680.95	8.9344E00
681.14	8.8652E00
681.33	8.9105E00
681.51	8.9386E00
681.70	8.9088E00
681.89	8.9259E00
682.07	8.8796E00
682.26	8.7947E00
682.44	8.8694E00
682.63	8.8490E00
682.82	8.8369E00
683.00	8.6985E00
683.19	8.7396E00
683.38	8.7289E00
683.56	8.6977E00
683.75	8.6221E00
683.94	8.5083E00
684.12	8.4602E00
684.31	8.4700E00
684.50	8.4279E00
684.68	8.3126E00
684.87	8.2669E00
685.05	8.2255E00
685.24	8.1084E00
685.43	8.0989E00
685.61	8.0463E00
685.80	7.9460E00
685.99	7.9520E00
686.17	7.8368E00
686.36	7.8719E00
686.54	7.8230E00
686.73	7.7666E00
686.92	7.7350E00
687.10	7.6861E00
687.29	7.7102E00
687.48	7.6446E00
687.66	7.7243E00
687.85	7.6507E00
688.03	7.6766E00
688.22	7.6367E00
688.41	7.7264E00
688.59	7.6534E00
688.78	7.7420E00
688.96	7.7752E00
689.15	7.8248E00
689.34	7.6902E00
689.52	7.8635E00
689.71	7.8198E00
689.89	7.8485E00
690.08	7.9138E00
690.27	7.8628E00
690.45	7.8514E00
690.64	7.8499E00
690.82	7.8241E00
691.01	7.8851E00
691.19	7.8732E00
691.38	7.8924E00
691.57	7.9281E00
691.75	7.8563E00
691.94	7.9209E00
692.12	7.8674E00
692.31	7.9182E00
692.50	7.8817E00
692.68	7.9138E00
692.87	7.9532E00
693.05	7.9218E00
693.24	7.8603E00
693.42	7.8901E00
693.61	7.9123E00
693.79	7.9544E00
693.98	7.8925E00
694.17	7.9372E00
694.35	7.9980E00
694.54	8.0095E00
694.72	7.9841E00
694.91	7.9969E00
695.09	8.0001E00
695.28	8.0157E00
695.46	8.0330E00
695.65	8.0556E00
695.83	8.0685E00
696.02	8.1133E00
696.21	8.1227E00
696.39	8.0648E00
696.58	8.1029E00
696.76	7.9818E00
696.95	8.0407E00
697.13	8.0510E00
697.32	8.0615E00
697.50	8.0582E00
697.69	8.0605E00
697.87	8.0743E00
698.06	8.0570E00
698.24	7.9811E00
698.43	7.9793E00
698.61	8.0447E00
698.80	7.9708E00
698.98	8.0091E00
699.17	7.8707E00
699.35	7.9564E00
699.54	7.9151E00
699.72	7.8407E00
699.91	7.9449E00
700.09	7.9331E00
700.28	7.9374E00
700.46	7.9302E00
700.65	7.8894E00
700.83	7.9152E00
701.02	7.9358E00
701.20	7.8137E00
701.39	7.9565E00
701.57	7.9036E00
701.76	7.8507E00
701.94	7.9021E00
702.13	7.9217E00
702.31	7.8258E00
702.50	8.0511E00
702.68	8.0103E00
702.87	8.0413E00
703.05	8.0392E00
703.24	8.0062E00
703.42	7.8670E00
703.61	8.0465E00
703.79	8.0670E00
703.98	7.9624E00
704.16	8.0253E00
704.35	8.0080E00
704.53	8.0539E00
704.72	8.0591E00
704.90	8.0790E00
705.08	8.0020E00
705.27	8.1217E00
705.45	8.1130E00
705.64	8.1395E00
705.82	8.1151E00
706.01	8.1113E00
706.19	8.0661E00
706.38	8.0929E00
706.56	8.1598E00
706.75	8.1338E00
706.93	8.1127E00
707.11	8.0344E00
707.30	8.1385E00
707.48	8.1145E00
707.67	8.0584E00
707.85	8.0854E00
708.04	8.1092E00
708.22	8.0817E00
708.40	8.0247E00
708.59	7.9872E00
708.77	8.1010E00
708.96	8.0611E00
709.14	8.0883E00
709.33	8.0376E00
709.51	8.0731E00
709.69	8.0650E00
709.88	8.0847E00
710.06	8.0630E00
710.25	8.0061E00
710.43	8.0588E00
710.62	8.1000E00
710.80	8.0427E00
710.98	8.0624E00
711.17	8.0389E00
711.35	8.0604E00
711.54	8.0642E00
711.72	7.9748E00
711.90	8.0283E00
712.09	8.0197E00
712.27	7.9303E00
712.46	7.9911E00
712.64	7.8966E00
712.82	7.9677E00
713.01	7.9411E00
713.19	7.9066E00
713.37	7.8217E00
713.56	7.7668E00
713.74	7.7870E00
713.93	7.6796E00
714.11	7.5829E00
714.29	7.4566E00
714.48	7.5088E00
714.66	7.4392E00
714.85	7.3074E00
715.03	7.2427E00
715.21	7.1520E00
715.40	7.0225E00
715.58	6.9646E00
715.76	6.8343E00
715.95	6.7861E00
716.13	6.7729E00
716.31	6.6428E00
716.50	6.5466E00
716.68	6.4380E00
716.87	6.4298E00
717.05	6.3599E00
717.23	6.2240E00
717.42	6.2302E00
717.60	6.1474E00
717.78	6.1463E00
717.97	6.1181E00
718.15	6.0696E00
718.33	6.0202E00
718.52	6.0705E00
718.70	6.1062E00
718.88	6.0462E00
719.07	6.1980E00
719.25	6.1101E00
719.43	6.1725E00
719.62	6.1660E00
719.80	6.1872E00
719.98	6.2973E00
720.17	6.2726E00
720.35	6.2894E00
720.53	6.3661E00
720.72	6.4028E00
720.90	6.3727E00
721.08	6.3518E00
721.27	6.3847E00
721.45	6.3921E00
721.63	6.3710E00
721.82	6.4226E00
722.00	6.3694E00
722.18	6.3690E00
722.36	6.4268E00
722.55	6.3808E00
722.73	6.3614E00
722.91	6.3374E00
723.10	6.3793E00
723.28	6.3010E00
723.46	6.1546E00
723.65	6.2269E00
723.83	6.2154E00
724.01	6.1678E00
724.19	6.2146E00
724.38	6.2097E00
724.56	6.2251E00
724.74	6.2451E00
724.93	6.1152E00
725.11	6.1356E00
725.29	6.2122E00
725.47	6.1983E00
725.66	6.1887E00
725.84	6.1635E00
726.02	6.1758E00
726.21	6.2436E00
726.39	6.1682E00
726.57	6.1899E00
726.75	6.1597E00
726.94	6.2406E00
727.12	6.1810E00
727.30	6.1820E00
727.48	6.1532E00
727.67	6.2432E00
727.85	6.2050E00
728.03	6.2432E00
728.21	6.2980E00
728.40	6.2240E00
728.58	6.3313E00
728.76	6.2863E00
728.94	6.3373E00
729.13	6.4007E00
729.31	6.3326E00
729.49	6.4113E00
729.67	6.4271E00
729.86	6.4777E00
730.04	6.4114E00
730.22	6.5484E00
730.40	6.5609E00
730.59	6.6024E00
730.77	6.6437E00
730.95	6.7390E00
731.13	6.7283E00
731.31	6.7732E00
731.50	6.7100E00
731.68	6.8928E00
731.86	6.8601E00
732.04	6.9333E00
732.23	7.0130E00
732.41	6.9914E00
732.59	7.0432E00
732.77	7.0785E00
732.95	7.0900E00
733.14	7.0649E00
733.32	7.1843E00
733.50	7.1521E00
733.68	7.1521E00
733.86	7.1705E00
734.05	7.2210E00
734.23	7.2473E00
734.41	7.1314E00
734.59	7.2073E00
734.77	7.2342E00
734.96	7.1339E00
735.14	7.2819E00
735.32	7.2608E00
735.50	7.2473E00
735.68	7.3326E00
735.87	7.2692E00
736.05	7.3819E00
736.23	7.2109E00
736.41	7.3545E00
736.59	7.3182E00
736.77	7.2952E00
736.96	7.2911E00
737.14	7.2307E00
737.32	7.3582E00
737.50	7.4019E00
737.68	7.3699E00
737.87	7.3994E00
738.05	7.4634E00
738.23	7.3052E00
738.41	7.3730E00
738.59	7.3945E00
738.77	7.4182E00
738.95	7.4899E00
739.14	7.3688E00
739.32	7.3848E00
739.50	7.5175E00
739.68	7.3878E00
739.86	7.4413E00
740.04	7.4167E00
740.23	7.3381E00
740.41	7.4699E00
740.59	7.4930E00
740.77	7.5341E00
740.95	7.4782E00
741.13	7.4481E00
741.31	7.4127E00
741.50	7.4395E00
741.68	7.4263E00
741.86	7.4173E00
742.04	7.5192E00
742.22	7.5560E00
742.40	7.5229E00
742.58	7.5662E00
742.76	7.5833E00
742.95	7.4494E00
743.13	7.6273E00
743.31	7.5951E00
743.49	7.5744E00
743.67	7.6605E00
743.85	7.6378E00
744.03	7.5838E00
744.21	7.6239E00
744.39	7.5447E00
744.58	7.6453E00
744.76	7.6428E00
744.94	7.7160E00
745.12	7.6559E00
745.30	7.5913E00
745.48	7.6647E00
745.66	7.6856E00
745.84	7.5619E00
746.02	7.5546E00
746.20	7.6079E00
746.38	7.6345E00
746.57	7.7103E00
746.75	7.5088E00
746.93	7.6425E00
747.11	7.5321E00
747.29	7.5875E00
747.47	7.6525E00
747.65	7.6219E00
747.83	7.4908E00
748.01	7.5896E00
748.19	7.5999E00
748.37	7.5974E00
748.55	7.5886E00
748.73	7.5316E00
748.92	7.5948E00
749.10	7.5303E00
749.28	7.6206E00
749.46	7.5449E00
749.64	7.5082E00
749.82	7.5473E00
750.00	7.6123E00
750.18	7.5814E00
750.36	7.4847E00
750.54	7.5841E00
750.72	7.6210E00
750.90	7.6111E00
751.08	7.5588E00
751.26	7.6151E00
751.44	7.6121E00
751.62	7.6720E00
751.80	7.6070E00
751.98	7.6532E00
752.16	7.6766E00
752.34	7.6923E00
752.52	7.7286E00
752.71	7.5818E00
752.89	7.5692E00
753.07	7.7424E00
753.25	7.5831E00
753.43	7.7579E00
753.61	7.6468E00
753.79	7.7948E00
753.97	7.7665E00
754.15	7.7927E00
754.33	7.8313E00
754.51	7.8468E00
754.69	7.8748E00
754.87	7.8194E00
755.05	7.8315E00
755.23	7.9040E00
755.41	7.9436E00
755.59	7.5213E00
755.77	7.7335E00
755.95	7.6823E00
756.13	7.5110E00
756.31	7.6048E00
756.49	7.5493E00
756.67	7.3931E00
756.85	7.2798E00
757.03	7.1463E00
757.21	7.0455E00
757.39	6.9536E00
757.57	6.8444E00
757.75	6.5837E00
757.93	6.3433E00
758.11	6.2555E00
758.29	6.1165E00
758.47	5.9029E00
758.65	5.8012E00
758.83	5.7941E00
759.01	5.5851E00
759.18	5.4016E00
759.36	5.1246E00
759.54	5.1514E00
759.72	4.9526E00
759.90	4.9393E00
760.08	4.8611E00
760.26	4.8004E00
760.44	4.6431E00
760.62	4.5248E00
760.80	4.5085E00
760.98	4.6676E00
761.16	4.6495E00
761.34	4.5726E00
761.52	4.7142E00
761.70	4.5729E00
761.88	4.6204E00
762.06	4.6474E00
762.24	4.6542E00
762.42	4.7098E00
762.60	4.7547E00
762.78	4.8512E00
762.95	4.8769E00
763.13	5.0188E00
763.31	5.1194E00
763.49	5.1383E00
763.67	5.2637E00
763.85	5.2565E00
764.03	5.5306E00
764.21	5.5310E00
764.39	5.7229E00
764.57	5.9218E00
764.75	5.9750E00
764.93	6.2485E00
765.11	6.1932E00
765.28	6.4111E00
765.46	6.4848E00
765.64	6.5565E00
765.82	6.7332E00
766.00	6.8744E00
766.18	6.9787E00
766.36	7.0622E00
766.54	7.1214E00
766.72	7.2302E00
766.90	7.4629E00
767.07	7.3276E00
767.25	7.4904E00
767.43	7.5869E00
767.61	7.7180E00
767.79	7.7764E00
767.97	7.7838E00
768.15	7.7687E00
768.33	7.7559E00
768.51	7.9114E00
768.68	7.9443E00
768.86	7.8985E00
769.04	7.9568E00
769.22	8.1583E00
769.40	8.1507E00
769.58	8.0646E00
769.76	8.2671E00
769.94	8.2474E00
770.11	8.1378E00
770.29	8.2033E00
770.47	8.1948E00
770.65	8.2256E00
770.83	8.2083E00
771.01	8.2885E00
771.19	8.2742E00
771.36	8.1628E00
771.54	8.2829E00
771.72	8.2101E00
771.90	8.1234E00
772.08	8.2310E00
772.26	8.2960E00
772.44	8.0937E00
772.61	8.2131E00
772.79	8.0815E00
772.97	8.2401E00
773.15	8.3033E00
773.33	8.1178E00
773.51	8.2352E00
773.68	8.1197E00
773.86	8.0654E00
774.04	8.1355E00
774.22	8.0325E00
774.40	8.0787E00
774.58	8.1369E00
774.75	8.1144E00
774.93	7.9642E00
775.11	8.1555E00
775.29	8.0371E00
775.47	7.9376E00
775.64	8.0962E00
775.82	8.0298E00
776.00	8.0741E00
776.18	7.9734E00
776.36	7.9745E00
776.53	8.1435E00
776.71	7.9476E00
776.89	7.9118E00
777.07	7.9815E00
777.25	7.9498E00
777.42	7.9326E00
777.60	7.8363E00
777.78	7.9240E00
777.96	7.8610E00
778.14	7.9482E00
778.31	7.8538E00
778.49	7.6745E00
778.67	7.7077E00
778.85	7.7578E00
779.03	7.8093E00
779.20	7.7852E00
779.38	7.7279E00
779.56	7.6015E00
779.74	7.7334E00
779.91	7.6340E00
780.09	7.5919E00
780.27	7.4971E00
780.45	7.5512E00
780.62	7.6076E00
780.80	7.6322E00
780.98	7.4481E00
781.16	7.3587E00
781.34	7.5280E00
781.51	7.5390E00
781.69	7.5370E00
781.87	7.4845E00
782.05	7.4295E00
782.22	7.4589E00
782.40	7.3887E00
782.58	7.4168E00
782.76	7.2970E00
782.93	7.4067E00
783.11	7.4719E00
783.29	7.2981E00
783.47	7.2965E00
783.64	7.3316E00
783.82	7.2434E00
784.00	7.1072E00
784.17	7.2096E00
784.35	7.2156E00
784.53	7.1545E00
784.71	7.2099E00
784.88	7.1272E00
785.06	7.2539E00
785.24	7.1085E00
785.42	7.1815E00
785.59	7.1116E00
785.77	6.9170E00
785.95	6.9717E00
786.12	6.8639E00
786.30	6.9633E00
786.48	6.9251E00
786.65	6.8581E00
786.83	6.8775E00
787.01	6.8872E00
787.19	6.8189E00
787.36	6.8371E00
787.54	6.7792E00
787.72	6.8093E00
787.89	6.7756E00
788.07	6.7430E00
788.25	6.7040E00
788.42	6.6589E00
788.60	6.7579E00
788.78	6.6323E00
788.96	6.6337E00
789.13	6.5340E00
789.31	6.5502E00
789.49	6.5422E00
789.66	6.6101E00
789.84	6.4851E00
790.02	6.3375E00
790.19	6.4336E00
790.37	6.4902E00
790.55	6.4377E00
790.72	6.4357E00
790.90	6.5491E00
791.08	6.3769E00
791.25	6.3924E00
791.43	6.3972E00
791.61	6.3191E00
791.78	6.3076E00
791.96	6.1773E00
792.14	6.2961E00
792.31	6.3556E00
792.49	6.1453E00
792.67	6.3827E00
792.84	6.2028E00
793.02	6.2062E00
793.19	6.1586E00
793.37	6.2899E00
793.55	6.2943E00
793.72	6.2368E00
793.90	6.0883E00
794.08	6.1724E00
794.25	6.1793E00
794.43	6.0767E00
794.61	6.1417E00
794.78	6.1257E00
794.96	5.9884E00
795.13	6.1004E00
795.31	6.1162E00
795.49	5.9609E00
795.66	6.0599E00
795.84	6.0012E00
796.01	6.0168E00
796.19	5.9445E00
796.37	6.0462E00
796.54	5.9980E00
796.72	6.0349E00
796.90	5.9630E00
797.07	5.8619E00
797.25	5.9563E00
797.42	6.0378E00
797.60	6.0197E00
797.78	5.9428E00
797.95	5.8534E00
798.13	5.7909E00
798.30	5.9118E00
798.48	5.8664E00
798.66	5.9609E00
798.83	5.7594E00
799.01	5.8696E00
799.18	5.7850E00
799.36	5.9092E00
799.53	5.6437E00
799.71	5.8660E00
799.89	5.7448E00
800.06	5.7532E00
800.24	5.7505E00
800.41	5.6047E00
800.59	5.8205E00
800.76	5.6478E00
800.94	5.6366E00
801.12	5.7403E00
801.29	5.6904E00
801.47	5.7422E00
801.64	5.5761E00
801.82	5.7035E00
801.99	5.7009E00
802.17	5.6954E00
802.34	5.6484E00
802.52	5.6344E00
802.70	5.6795E00
802.87	5.5446E00
803.05	5.4809E00
803.22	5.7096E00
803.40	5.5751E00
803.57	5.5742E00
803.75	5.7000E00
803.92	5.6143E00
804.10	5.4718E00
804.27	5.4762E00
804.45	5.5468E00
804.63	5.5041E00
804.80	5.4385E00
804.98	5.5443E00
805.15	5.3751E00
805.33	5.6233E00
805.50	5.6517E00
805.68	5.5964E00
805.85	5.6425E00
806.03	5.5396E00
806.20	5.5564E00
806.38	5.3032E00
806.55	5.3638E00
806.73	5.5989E00
806.90	5.4451E00
807.08	5.3721E00
807.25	5.2393E00
807.43	5.3838E00
807.60	5.4218E00
807.78	5.2426E00
807.95	5.1048E00
808.13	5.1587E00
808.30	5.1025E00
808.48	5.2492E00
808.65	5.1601E00
808.83	5.2939E00
809.00	5.1385E00
809.18	5.2657E00
809.35	5.0164E00
809.53	5.1740E00
809.70	5.0799E00
809.88	5.1018E00
810.05	5.0512E00
810.23	5.1088E00
810.40	5.0245E00
810.57	4.9910E00
810.75	4.8626E00
810.92	4.8393E00
811.10	4.8472E00
811.27	4.7310E00
811.45	4.8012E00
811.62	4.7255E00
811.80	4.6412E00
811.97	4.7369E00
812.15	4.7351E00
812.32	4.7183E00
812.50	4.4878E00
812.67	4.8112E00
812.84	4.4914E00
813.02	4.5901E00
813.19	4.5368E00
813.37	4.5171E00
813.54	4.3566E00
813.72	4.3856E00
813.89	4.2345E00
814.07	4.3261E00
814.24	4.3400E00
814.41	4.3579E00
814.59	4.1644E00
814.76	4.1114E00
814.94	4.1966E00
815.11	4.2195E00
815.29	3.8963E00
815.46	3.9475E00
815.63	4.0071E00
815.81	4.0088E00
815.98	3.7720E00
816.16	3.7982E00
816.33	4.0010E00
816.50	4.0609E00
816.68	3.9631E00
816.85	3.8819E00
817.03	3.9827E00
817.20	3.9134E00
817.37	4.0130E00
817.55	3.9167E00
817.72	3.9734E00
817.90	3.8192E00
818.07	3.9535E00
818.24	3.7813E00
818.42	3.8606E00
818.59	3.8503E00
818.77	3.8514E00
818.94	3.9884E00
819.11	3.8020E00
819.29	4.0178E00
819.46	3.9925E00
819.64	3.7788E00
819.81	4.0847E00
819.98	4.0304E00
820.16	3.8615E00
820.33	3.9793E00
820.50	3.9541E00
820.68	3.8295E00
820.85	3.9575E00
821.02	3.8935E00
821.20	3.7788E00
821.37	3.9237E00
821.55	3.7023E00
821.72	3.8311E00
821.89	3.8541E00
822.07	3.9789E00
822.24	3.9631E00
822.41	3.7042E00
822.59	4.0677E00
822.76	4.0548E00
822.93	3.8399E00
823.11	3.8946E00
823.28	3.9822E00
823.45	3.8852E00
823.63	3.9079E00
823.80	4.0448E00
823.97	3.7390E00
824.15	4.0692E00
824.32	3.9184E00
824.49	4.1755E00
824.67	3.9580E00
824.84	4.0453E00
825.01	4.0364E00
825.19	4.0455E00
825.36	4.0380E00
825.53	4.1539E00
825.71	4.0862E00
825.88	4.1159E00
826.05	3.9228E00
826.23	4.0755E00
826.40	3.9732E00
826.57	3.9964E00
826.75	3.9396E00
826.92	3.8331E00
827.09	3.8245E00
827.26	4.1428E00
827.44	3.9877E00
827.61	4.1266E00
827.78	4.0245E00
827.96	3.7938E00
828.13	4.1228E00
828.30	4.0093E00
828.48	3.9374E00
828.65	3.8927E00
828.82	3.9134E00
828.99	3.9108E00
829.17	3.9461E00
829.34	3.6738E00
829.51	3.8915E00
829.68	4.0606E00
829.86	4.0063E00
830.03	3.8981E00
830.20	3.9694E00
830.38	3.9157E00
830.55	3.7870E00
830.72	3.9723E00
830.89	3.7591E00
831.07	3.7673E00
831.24	3.7745E00
831.41	3.8387E00
831.58	3.9751E00
831.76	4.1022E00
831.93	3.9822E00
832.10	3.9823E00
832.27	3.7575E00
832.45	3.7713E00
832.62	3.9752E00
832.79	3.8653E00
832.96	4.0146E00
833.14	3.7895E00
833.31	4.1220E00
833.48	3.9820E00
833.65	3.8748E00
833.83	4.1289E00
834.00	4.1660E00
834.17	3.9719E00
834.34	4.0650E00
834.51	3.9635E00
834.69	3.8710E00
834.86	4.0919E00
835.03	3.9359E00
835.20	4.0915E00
835.38	3.9678E00
835.55	4.0204E00
835.72	3.9433E00
835.89	4.2749E00
836.06	3.9446E00
836.24	3.9420E00
836.41	3.8385E00
836.58	4.1248E00
836.75	4.0868E00
836.92	4.0371E00
837.10	3.8834E00
837.27	3.9741E00
837.44	3.8662E00
837.61	4.1471E00
837.78	3.9165E00
837.96	4.0505E00
838.13	3.9832E00
838.30	4.1336E00
838.47	4.0679E00
838.64	4.0252E00
838.82	3.9828E00
838.99	4.2270E00
839.16	3.9623E00
839.33	4.0045E00
839.50	4.2139E00
839.67	4.0756E00
839.85	3.8174E00
840.02	4.0485E00
840.19	3.9241E00
840.36	4.1525E00
840.53	3.8509E00
840.70	3.8377E00
840.88	4.1063E00
841.05	4.1845E00
841.22	4.0406E00
841.39	4.0322E00
841.56	4.0496E00
841.73	3.9901E00
841.91	4.0941E00
842.08	4.0752E00
842.25	4.0228E00
842.42	4.0815E00
842.59	4.0040E00
842.76	4.2257E00
842.93	3.9931E00
843.11	4.0495E00
843.28	3.9812E00
843.45	4.0119E00
843.62	3.8388E00
843.79	3.8968E00
843.96	4.1614E00
844.13	4.0215E00
844.30	4.0019E00
844.48	4.1357E00
844.65	3.8238E00
844.82	3.7092E00
844.99	3.8806E00
845.16	3.8603E00
845.33	3.8995E00
845.50	3.9025E00
845.67	3.7276E00
845.84	3.8961E00
846.02	3.7902E00
846.19	3.9111E00
846.36	3.9066E00
846.53	4.1036E00
846.70	3.9348E00
846.87	3.6758E00
847.04	3.9429E00
847.21	3.9107E00
847.38	3.9055E00
847.55	3.8858E00
847.73	3.7166E00
847.90	3.7964E00
848.07	3.6397E00
848.24	3.6943E00
848.41	3.6195E00
848.58	4.0999E00
848.75	3.7120E00
848.92	3.9879E00
849.09	3.7447E00
849.26	3.6614E00
849.43	3.5787E00
849.60	3.7011E00
849.77	3.8225E00
849.94	3.2441E00
850.12	3.8577E00
850.29	3.7402E00
850.46	3.6572E00
850.63	3.5909E00
850.80	3.7282E00
850.97	3.7101E00
851.14	3.5032E00
851.31	3.3392E00
851.48	3.5306E00
851.65	3.6020E00
851.82	3.7658E00
851.99	3.6952E00
852.16	3.3060E00
852.33	3.6028E00
852.50	3.4735E00
852.67	3.5202E00
852.84	3.5799E00
853.01	3.4576E00
853.18	3.5883E00
853.35	3.3600E00
853.52	3.7241E00
853.69	3.4501E00
853.86	3.2604E00
854.03	3.2278E00
854.21	3.5051E00
854.38	3.4184E00
854.55	3.5219E00
854.72	3.5583E00
854.89	3.2771E00
855.06	3.1046E00
855.23	3.4141E00
855.40	3.6273E00
855.57	3.2641E00
855.74	3.3544E00
855.91	3.4458E00
856.08	3.2728E00
856.25	3.4671E00
856.42	3.4072E00
856.59	3.3990E00
856.76	3.4607E00
856.93	3.4534E00
857.10	3.4447E00
857.27	3.7039E00
857.44	3.5323E00
857.61	3.5354E00
857.77	3.3274E00
857.94	3.3420E00
858.11	3.3089E00
858.28	3.6519E00
858.45	3.2964E00
858.62	3.4827E00
858.79	3.3621E00
858.96	3.3867E00
859.13	3.4001E00
859.30	3.5543E00
859.47	3.3409E00
859.64	3.1224E00
859.81	3.5309E00
859.98	3.5436E00
860.15	3.3900E00
860.32	3.2957E00
860.49	3.7652E00
860.66	3.4662E00
860.83	3.5279E00
861.00	3.4699E00
861.17	3.5111E00
861.34	3.5428E00
861.51	3.1508E00
861.68	3.5695E00
861.84	3.4728E00
862.01	3.2931E00
862.18	3.3530E00
862.35	3.4860E00
862.52	3.4749E00
862.69	3.3588E00
862.86	3.4573E00
863.03	3.5303E00
863.20	3.4348E00
863.37	3.4823E00
863.54	3.2520E00
863.71	3.2475E00
863.88	3.3563E00
864.05	3.3101E00
864.21	3.4547E00
864.38	3.1659E00
864.55	3.0888E00
864.72	3.4855E00
864.89	3.2654E00
865.06	3.4466E00
865.23	3.2164E00
865.40	3.0719E00
865.57	3.4606E00
865.74	3.3186E00
865.90	3.3550E00
866.07	3.3337E00
866.24	3.0726E00
866.41	3.0124E00
866.58	3.0997E00
866.75	3.1521E00
866.92	3.1578E00
867.09	3.1695E00
867.26	3.1904E00
867.42	3.0042E00
867.59	2.8900E00
867.76	3.2570E00
867.93	3.0837E00
868.10	3.1657E00
868.27	2.8193E00
868.44	3.1882E00
868.60	3.2699E00
868.77	3.2342E00
868.94	3.1368E00
869.11	3.0972E00
869.28	3.2821E00
869.45	2.8630E00
869.62	3.2062E00
869.78	3.0794E00
869.95	2.8975E00
870.12	3.0247E00
870.29	3.1445E00
870.46	3.1880E00
870.63	2.9859E00
870.80	2.8122E00
870.96	2.9538E00
871.13	2.9029E00
871.30	3.1094E00
871.47	3.1496E00
871.64	3.1431E00
871.81	2.6522E00
871.97	3.2491E00
872.14	2.7820E00
872.31	2.7016E00
872.48	2.8739E00
872.65	3.1182E00
872.81	2.9352E00
872.98	3.2119E00
873.15	3.1101E00
873.32	3.1223E00
873.49	2.9434E00
873.66	3.0831E00
873.82	2.9593E00
873.99	2.8438E00
874.16	3.0420E00
874.33	2.9189E00
874.50	3.1110E00
874.66	2.9563E00
874.83	3.0011E00
875.00	2.9536E00
875.17	2.6181E00
875.34	3.0895E00
875.50	2.8788E00
875.67	2.8207E00
875.84	2.8795E00
876.01	2.8005E00
876.17	2.6966E00
876.34	2.7011E00
876.51	3.1019E00
876.68	2.9940E00
876.85	2.9133E00
877.01	3.0262E00
877.18	2.7905E00
877.35	2.8763E00
877.52	2.8533E00
877.68	2.9823E00
877.85	2.7880E00
878.02	2.8894E00
878.19	2.8094E00
878.35	2.8844E00
878.52	2.8488E00
878.69	2.9081E00
878.86	2.6478E00
879.02	2.7713E00
879.19	2.5634E00
879.36	2.7053E00
879.53	2.4244E00
879.69	2.6614E00
879.86	2.9185E00
880.03	2.8825E00
880.20	2.6425E00
880.36	2.9261E00
880.53	2.5999E00
880.70	2.9632E00
880.87	2.7201E00
881.03	2.7318E00
881.20	2.4346E00
881.37	2.6759E00
881.54	2.7593E00
881.70	2.9089E00
881.87	2.6239E00
882.04	2.6331E00
882.20	2.6554E00
882.37	2.4308E00
882.54	2.7336E00
882.71	2.7166E00
882.87	2.8815E00
883.04	2.6299E00
883.21	2.6303E00
883.37	2.5365E00
883.54	2.6267E00
883.71	2.5320E00
883.87	2.4067E00
884.04	2.7866E00
884.21	2.5339E00
884.38	2.4382E00
884.54	2.8357E00
884.71	2.8390E00
884.88	2.5540E00
885.04	2.6411E00
885.21	2.4844E00
885.38	2.4832E00
885.54	2.9171E00
885.71	2.5123E00
885.88	2.6708E00
886.04	2.6273E00
886.21	2.6441E00
886.38	2.5202E00
886.54	2.5354E00
886.71	2.3972E00
886.88	2.7605E00
887.04	2.2846E00
887.21	2.4733E00
887.38	2.6903E00
887.54	2.6472E00
887.71	2.5247E00
887.88	2.5883E00
888.04	2.4619E00
888.21	2.3627E00
888.38	2.7265E00
888.54	2.2967E00
888.71	2.4129E00
888.87	2.1618E00
889.04	2.1618E00
>>>>>End Processed Spectral Data<<<<<
