SpectraSuite Data File
++++++++++++++++++++++++++++++++++++
Date: Wed Jul 25 11:04:43 HST 2007
User: guest
Dark Spectrum Present: Yes
Reference Spectrum Present: No
Number of Sampled Component Spectra: 1
Spectrometers: USB4E01242
Integration Time (usec): 20000 (USB4E01242)
Spectra Averaged: 1 (USB4E01242)
Boxcar Smoothing: 10 (USB4E01242)
Correct for Electrical Dark: No (USB4E01242)
Strobe/Lamp Enabled: No (USB4E01242)
Correct for Detector Non-linearity: No (USB4E01242)
Correct for Stray Light: No (USB4E01242)
Number of Pixels in Processed Spectrum: 3648
>>>>>Begin Processed Spectral Data<<<<<
177.33	0.0000E00
177.55	0.0000E00
177.77	0.0000E00
177.99	0.0000E00
178.21	0.0000E00
178.43	-0.0000E00
178.64	-0.0000E00
178.86	-0.0000E00
179.08	-0.0000E00
179.30	-0.0000E00
179.52	-0.0000E00
179.74	-0.0000E00
179.96	-0.0000E00
180.18	-0.0000E00
180.39	-0.0000E00
180.61	-0.0000E00
180.83	-0.0000E00
181.05	-0.0000E00
181.27	-0.0000E00
181.49	-0.0000E00
181.71	-0.0000E00
181.92	-0.0000E00
182.14	-0.0000E00
182.36	-0.0000E00
182.58	-0.0000E00
182.80	-0.0000E00
183.02	-0.0000E00
183.23	-0.0000E00
183.45	-0.0000E00
183.67	-0.0000E00
183.89	-0.0000E00
184.11	0.0000E00
184.33	-0.0000E00
184.55	-0.0000E00
184.76	-0.0000E00
184.98	-0.0000E00
185.20	-0.0000E00
185.42	-0.0000E00
185.64	-0.0000E00
185.86	0.0000E00
186.07	-0.0000E00
186.29	-0.0000E00
186.51	-0.0000E00
186.73	-0.0000E00
186.95	-0.0000E00
187.17	-0.0000E00
187.38	-0.0000E00
187.60	0.0000E00
187.82	-0.0000E00
188.04	-0.0000E00
188.26	-0.0000E00
188.47	-0.0000E00
188.69	-0.0000E00
188.91	-0.0000E00
189.13	-0.0000E00
189.35	-0.0000E00
189.57	-0.0000E00
189.78	0.0000E00
190.00	-0.0000E00
190.22	-0.0000E00
190.44	-0.0000E00
190.66	-0.0000E00
190.87	-0.0000E00
191.09	-0.0000E00
191.31	-0.0000E00
191.53	-0.0000E00
191.75	-0.0000E00
191.97	-0.0000E00
192.18	-0.0000E00
192.40	0.0000E00
192.62	-0.0000E00
192.84	-0.0000E00
193.06	-0.0000E00
193.27	-0.0000E00
193.49	-0.0000E00
193.71	-0.0000E00
193.93	-0.0000E00
194.15	-0.0000E00
194.36	-0.0000E00
194.58	-0.0000E00
194.80	-0.0000E00
195.02	-0.0000E00
195.23	-0.0000E00
195.45	-0.0000E00
195.67	-0.0000E00
195.89	-0.0000E00
196.11	-0.0000E00
196.32	-0.0000E00
196.54	-0.0000E00
196.76	-0.0000E00
196.98	-0.0000E00
197.20	-0.0000E00
197.41	-0.0000E00
197.63	-0.0000E00
197.85	-0.0000E00
198.07	-0.0000E00
198.28	-0.0000E00
198.50	-0.0000E00
198.72	-0.0000E00
198.94	-0.0000E00
199.16	-0.0000E00
199.37	-0.0000E00
199.59	-0.0000E00
199.81	-0.0000E00
200.03	-0.0000E00
200.24	0.0000E00
200.46	-0.0000E00
200.68	-0.0000E00
200.90	-0.0000E00
201.11	-0.0000E00
201.33	-0.0000E00
201.55	-0.0000E00
201.77	-0.0000E00
201.98	-0.0000E00
202.20	-0.0000E00
202.42	-0.0000E00
202.64	-0.0000E00
202.86	-0.0000E00
203.07	-0.0000E00
203.29	-0.0000E00
203.51	-0.0000E00
203.73	-0.0000E00
203.94	-0.0000E00
204.16	-0.0000E00
204.38	0.0000E00
204.60	-0.0000E00
204.81	0.0000E00
205.03	-0.0000E00
205.25	-0.0000E00
205.46	0.0000E00
205.68	-0.0000E00
205.90	-0.0000E00
206.12	-0.0000E00
206.33	-0.0000E00
206.55	0.0000E00
206.77	-0.0000E00
206.99	-0.0000E00
207.20	-0.0000E00
207.42	-0.0000E00
207.64	-0.0000E00
207.86	-0.0000E00
208.07	-0.0000E00
208.29	-0.0000E00
208.51	-0.0000E00
208.72	-0.0000E00
208.94	-0.0000E00
209.16	0.0000E00
209.38	-0.0000E00
209.59	-0.0000E00
209.81	-0.0000E00
210.03	-0.0000E00
210.25	-0.0000E00
210.46	-0.0000E00
210.68	-0.0000E00
210.90	-0.0000E00
211.11	-0.0000E00
211.33	-0.0000E00
211.55	-0.0000E00
211.77	-0.0000E00
211.98	0.0000E00
212.20	-0.0000E00
212.42	-0.0000E00
212.63	-0.0000E00
212.85	-0.0000E00
213.07	-0.0000E00
213.29	-0.0000E00
213.50	-0.0000E00
213.72	-0.0000E00
213.94	-0.0000E00
214.15	-0.0000E00
214.37	-0.0000E00
214.59	-0.0000E00
214.80	-0.0000E00
215.02	-0.0000E00
215.24	-0.0000E00
215.45	-0.0000E00
215.67	-0.0000E00
215.89	-0.0000E00
216.11	-0.0000E00
216.32	-0.0000E00
216.54	-0.0000E00
216.76	-0.0000E00
216.97	0.0000E00
217.19	-0.0000E00
217.41	-0.0000E00
217.62	-0.0000E00
217.84	-0.0000E00
218.06	-0.0000E00
218.27	-0.0000E00
218.49	0.0000E00
218.71	-0.0000E00
218.92	-0.0000E00
219.14	-0.0000E00
219.36	-0.0000E00
219.57	-0.0000E00
219.79	-0.0000E00
220.01	-0.0000E00
220.22	0.0000E00
220.44	-0.0000E00
220.66	-0.0000E00
220.88	-0.0000E00
221.09	0.0000E00
221.31	-0.0000E00
221.53	-0.0000E00
221.74	0.0000E00
221.96	-0.0000E00
222.17	-0.0000E00
222.39	-0.0000E00
222.61	-0.0000E00
222.82	0.0000E00
223.04	0.0000E00
223.26	-0.0000E00
223.47	-0.0000E00
223.69	-0.0000E00
223.91	-0.0000E00
224.12	0.0000E00
224.34	-0.0000E00
224.56	-0.0000E00
224.77	-0.0000E00
224.99	-0.0000E00
225.21	-0.0000E00
225.42	-0.0000E00
225.64	0.0000E00
225.86	-0.0000E00
226.07	-0.0000E00
226.29	-0.0000E00
226.50	0.0000E00
226.72	-0.0000E00
226.94	-0.0000E00
227.15	-0.0000E00
227.37	0.0000E00
227.59	-0.0000E00
227.80	-0.0000E00
228.02	-0.0000E00
228.24	-0.0000E00
228.45	-0.0000E00
228.67	-0.0000E00
228.88	0.0000E00
229.10	-0.0000E00
229.32	-0.0000E00
229.53	0.0000E00
229.75	-0.0000E00
229.97	-0.0000E00
230.18	-0.0000E00
230.40	-0.0000E00
230.61	-0.0000E00
230.83	-0.0000E00
231.05	-0.0000E00
231.26	0.0000E00
231.48	-0.0000E00
231.70	-0.0000E00
231.91	-0.0000E00
232.13	-0.0000E00
232.34	-0.0000E00
232.56	0.0000E00
232.78	-0.0000E00
232.99	0.0000E00
233.21	-0.0000E00
233.42	-0.0000E00
233.64	-0.0000E00
233.86	-0.0000E00
234.07	-0.0000E00
234.29	0.0000E00
234.50	-0.0000E00
234.72	-0.0000E00
234.94	-0.0000E00
235.15	-0.0000E00
235.37	-0.0000E00
235.58	0.0000E00
235.80	-0.0000E00
236.02	0.0000E00
236.23	-0.0000E00
236.45	-0.0000E00
236.66	-0.0000E00
236.88	0.0000E00
237.10	0.0000E00
237.31	-0.0000E00
237.53	0.0000E00
237.74	0.0000E00
237.96	-0.0000E00
238.17	-0.0000E00
238.39	-0.0000E00
238.61	-0.0000E00
238.82	-0.0000E00
239.04	-0.0000E00
239.25	-0.0000E00
239.47	-0.0000E00
239.69	-0.0000E00
239.90	-0.0000E00
240.12	0.0000E00
240.33	0.0000E00
240.55	-0.0000E00
240.76	0.0000E00
240.98	-0.0000E00
241.20	-0.0000E00
241.41	-0.0000E00
241.63	-0.0000E00
241.84	-0.0000E00
242.06	-0.0000E00
242.27	-0.0000E00
242.49	-0.0000E00
242.70	-0.0000E00
242.92	0.0000E00
243.14	0.0000E00
243.35	-0.0000E00
243.57	0.0000E00
243.78	-0.0000E00
244.00	0.0000E00
244.21	-0.0000E00
244.43	0.0000E00
244.64	-0.0000E00
244.86	-0.0000E00
245.08	-0.0000E00
245.29	-0.0000E00
245.51	-0.0000E00
245.72	-0.0000E00
245.94	-0.0000E00
246.15	-0.0000E00
246.37	-0.0000E00
246.58	-0.0000E00
246.80	-0.0000E00
247.01	-0.0000E00
247.23	-0.0000E00
247.45	-0.0000E00
247.66	-0.0000E00
247.88	-0.0000E00
248.09	-0.0000E00
248.31	-0.0000E00
248.52	-0.0000E00
248.74	-0.0000E00
248.95	0.0000E00
249.17	-0.0000E00
249.38	-0.0000E00
249.60	-0.0000E00
249.81	0.0000E00
250.03	0.0000E00
250.24	-0.0000E00
250.46	0.0000E00
250.67	-0.0000E00
250.89	-0.0000E00
251.10	-0.0000E00
251.32	-0.0000E00
251.53	-0.0000E00
251.75	-0.0000E00
251.97	-0.0000E00
252.18	-0.0000E00
252.40	-0.0000E00
252.61	0.0000E00
252.83	-0.0000E00
253.04	-0.0000E00
253.26	-0.0000E00
253.47	-0.0000E00
253.69	-0.0000E00
253.90	-0.0000E00
254.12	-0.0000E00
254.33	-0.0000E00
254.55	-0.0000E00
254.76	-0.0000E00
254.98	0.0000E00
255.19	-0.0000E00
255.41	-0.0000E00
255.62	-0.0000E00
255.84	-0.0000E00
256.05	-0.0000E00
256.27	-0.0000E00
256.48	-0.0000E00
256.70	-0.0000E00
256.91	-0.0000E00
257.13	-0.0000E00
257.34	-0.0000E00
257.55	-0.0000E00
257.77	-0.0000E00
257.98	-0.0000E00
258.20	-0.0000E00
258.41	0.0000E00
258.63	-0.0000E00
258.84	-0.0000E00
259.06	-0.0000E00
259.27	-0.0000E00
259.49	0.0000E00
259.70	0.0000E00
259.92	-0.0000E00
260.13	0.0000E00
260.35	-0.0000E00
260.56	-0.0000E00
260.78	-0.0000E00
260.99	-0.0000E00
261.21	-0.0000E00
261.42	-0.0000E00
261.63	-0.0000E00
261.85	-0.0000E00
262.06	-0.0000E00
262.28	-0.0000E00
262.49	-0.0000E00
262.71	-0.0000E00
262.92	-0.0000E00
263.14	-0.0000E00
263.35	-0.0000E00
263.57	-0.0000E00
263.78	0.0000E00
264.00	-0.0000E00
264.21	-0.0000E00
264.42	-0.0000E00
264.64	-0.0000E00
264.85	-0.0000E00
265.07	-0.0000E00
265.28	-0.0000E00
265.50	-0.0000E00
265.71	-0.0000E00
265.93	-0.0000E00
266.14	-0.0000E00
266.35	0.0000E00
266.57	-0.0000E00
266.78	0.0000E00
267.00	-0.0000E00
267.21	0.0000E00
267.43	-0.0000E00
267.64	-0.0000E00
267.85	-0.0000E00
268.07	-0.0000E00
268.28	-0.0000E00
268.50	-0.0000E00
268.71	0.0000E00
268.93	-0.0000E00
269.14	0.0000E00
269.35	-0.0000E00
269.57	0.0000E00
269.78	-0.0000E00
270.00	-0.0000E00
270.21	0.0000E00
270.43	-0.0000E00
270.64	0.0000E00
270.85	-0.0000E00
271.07	-0.0000E00
271.28	-0.0000E00
271.50	-0.0000E00
271.71	-0.0000E00
271.92	-0.0000E00
272.14	-0.0000E00
272.35	0.0000E00
272.57	-0.0000E00
272.78	-0.0000E00
272.99	0.0000E00
273.21	-0.0000E00
273.42	-0.0000E00
273.64	-0.0000E00
273.85	-0.0000E00
274.07	0.0000E00
274.28	-0.0000E00
274.49	-0.0000E00
274.71	-0.0000E00
274.92	-0.0000E00
275.13	-0.0000E00
275.35	-0.0000E00
275.56	-0.0000E00
275.78	0.0000E00
275.99	-0.0000E00
276.20	-0.0000E00
276.42	-0.0000E00
276.63	-0.0000E00
276.85	-0.0000E00
277.06	-0.0000E00
277.27	-0.0000E00
277.49	0.0000E00
277.70	-0.0000E00
277.92	-0.0000E00
278.13	-0.0000E00
278.34	0.0000E00
278.56	-0.0000E00
278.77	-0.0000E00
278.98	-0.0000E00
279.20	-0.0000E00
279.41	-0.0000E00
279.63	0.0000E00
279.84	-0.0000E00
280.05	-0.0000E00
280.27	-0.0000E00
280.48	-0.0000E00
280.69	-0.0000E00
280.91	-0.0000E00
281.12	-0.0000E00
281.33	-0.0000E00
281.55	-0.0000E00
281.76	-0.0000E00
281.98	-0.0000E00
282.19	-0.0000E00
282.40	0.0000E00
282.62	0.0000E00
282.83	-0.0000E00
283.04	-0.0000E00
283.26	0.0000E00
283.47	-0.0000E00
283.68	-0.0000E00
283.90	-0.0000E00
284.11	-0.0000E00
284.32	-0.0000E00
284.54	-0.0000E00
284.75	-0.0000E00
284.96	-0.0000E00
285.18	-0.0000E00
285.39	-0.0000E00
285.60	-0.0000E00
285.82	-0.0000E00
286.03	-0.0000E00
286.24	-0.0000E00
286.46	0.0000E00
286.67	0.0000E00
286.88	-0.0000E00
287.10	-0.0000E00
287.31	-0.0000E00
287.52	0.0000E00
287.74	-0.0000E00
287.95	-0.0000E00
288.16	-0.0000E00
288.38	-0.0000E00
288.59	-0.0000E00
288.80	-0.0000E00
289.02	-0.0000E00
289.23	-0.0000E00
289.44	-0.0000E00
289.66	0.0000E00
289.87	-0.0000E00
290.08	0.0000E00
290.30	-0.0000E00
290.51	-0.0000E00
290.72	-0.0000E00
290.94	0.0000E00
291.15	-0.0000E00
291.36	0.0000E00
291.57	0.0000E00
291.79	-0.0000E00
292.00	-0.0000E00
292.21	-0.0000E00
292.43	-0.0000E00
292.64	-0.0000E00
292.85	0.0000E00
293.07	-0.0000E00
293.28	0.0000E00
293.49	-0.0000E00
293.70	0.0000E00
293.92	0.0000E00
294.13	-0.0000E00
294.34	0.0000E00
294.56	-0.0000E00
294.77	0.0000E00
294.98	-0.0000E00
295.20	-0.0000E00
295.41	-0.0000E00
295.62	-0.0000E00
295.83	-0.0000E00
296.05	0.0000E00
296.26	-0.0000E00
296.47	0.0000E00
296.69	-0.0000E00
296.90	0.0000E00
297.11	0.0000E00
297.32	-0.0000E00
297.54	0.0000E00
297.75	-0.0000E00
297.96	0.0000E00
298.17	0.0000E00
298.39	0.0000E00
298.60	0.0000E00
298.81	0.0000E00
299.03	0.0000E00
299.24	0.0000E00
299.45	0.0000E00
299.66	0.0000E00
299.88	0.0000E00
300.09	1.8961E-03
300.30	1.4611E-03
300.51	2.0716E-03
300.73	1.3401E-03
300.94	1.7835E-03
301.15	2.1592E-03
301.36	1.8867E-03
301.58	2.2037E-03
301.79	2.9552E-03
302.00	2.9122E-03
302.21	2.2262E-03
302.43	2.7257E-03
302.64	2.9885E-03
302.85	3.2561E-03
303.06	2.3606E-03
303.28	3.4070E-03
303.49	3.1674E-03
303.70	4.3036E-03
303.91	3.0181E-03
304.13	3.5666E-03
304.34	3.1690E-03
304.55	4.9358E-03
304.76	3.7016E-03
304.98	3.3301E-03
305.19	4.7771E-03
305.40	4.1038E-03
305.61	5.5650E-03
305.82	5.1326E-03
306.04	4.9194E-03
306.25	4.5025E-03
306.46	5.1057E-03
306.67	4.4514E-03
306.89	6.1914E-03
307.10	5.5857E-03
307.31	6.4423E-03
307.52	5.4088E-03
307.74	7.0752E-03
307.95	6.8144E-03
308.16	5.0432E-03
308.37	7.9065E-03
308.58	7.1053E-03
308.80	7.5126E-03
309.01	7.7944E-03
309.22	5.7865E-03
309.43	6.3848E-03
309.64	7.5086E-03
309.86	7.2678E-03
310.07	6.3744E-03
310.28	8.0806E-03
310.49	8.7297E-03
310.70	8.4158E-03
310.92	8.0123E-03
311.13	6.7590E-03
311.34	8.4625E-03
311.55	8.9021E-03
311.76	7.5931E-03
311.98	7.0072E-03
312.19	1.0526E-02
312.40	8.5751E-03
312.61	9.0724E-03
312.82	9.0131E-03
313.04	7.6251E-03
313.25	9.5746E-03
313.46	8.7625E-03
313.67	8.6283E-03
313.88	8.1272E-03
314.10	8.2619E-03
314.31	8.2278E-03
314.52	8.4292E-03
314.73	8.1247E-03
314.94	6.9686E-03
315.16	9.8945E-03
315.37	8.7838E-03
315.58	1.1028E-02
315.79	9.2949E-03
316.00	8.8899E-03
316.21	8.3021E-03
316.43	8.5384E-03
316.64	8.4495E-03
316.85	6.9374E-03
317.06	8.2751E-03
317.27	8.2409E-03
317.48	7.8844E-03
317.70	8.1060E-03
317.91	9.0586E-03
318.12	7.8866E-03
318.33	8.3745E-03
318.54	8.8850E-03
318.75	1.0857E-02
318.97	8.6345E-03
319.18	9.5914E-03
319.39	9.9014E-03
319.60	9.2120E-03
319.81	9.2517E-03
320.02	1.0239E-02
320.24	1.0018E-02
320.45	9.2678E-03
320.66	1.0201E-02
320.87	9.5259E-03
321.08	9.4640E-03
321.29	8.9036E-03
321.50	9.3012E-03
321.72	8.7720E-03
321.93	8.6917E-03
322.14	1.0753E-02
322.35	8.4658E-03
322.56	9.9309E-03
322.77	1.0826E-02
322.98	1.0962E-02
323.20	1.0416E-02
323.41	1.1130E-02
323.62	1.1254E-02
323.83	1.0051E-02
324.04	1.0448E-02
324.25	1.0250E-02
324.46	1.1379E-02
324.67	1.0026E-02
324.89	1.0058E-02
325.10	1.1272E-02
325.31	1.0918E-02
325.52	1.3268E-02
325.73	1.3282E-02
325.94	1.3298E-02
326.15	1.3136E-02
326.36	1.2772E-02
326.58	1.5591E-02
326.79	1.3721E-02
327.00	1.2467E-02
327.21	1.2999E-02
327.42	1.3462E-02
327.63	1.4199E-02
327.84	1.5221E-02
328.05	1.4182E-02
328.26	1.7055E-02
328.48	1.4647E-02
328.69	1.8702E-02
328.90	1.5942E-02
329.11	1.6499E-02
329.32	1.6705E-02
329.53	1.5058E-02
329.74	1.6715E-02
329.95	1.4722E-02
330.16	1.4582E-02
330.37	1.6518E-02
330.59	1.3803E-02
330.80	1.7862E-02
331.01	1.7432E-02
331.22	1.7655E-02
331.43	1.8065E-02
331.64	1.5376E-02
331.85	1.5958E-02
332.06	1.5712E-02
332.27	1.7921E-02
332.48	1.9067E-02
332.69	1.3351E-02
332.91	1.7759E-02
333.12	1.5650E-02
333.33	1.8034E-02
333.54	1.6769E-02
333.75	1.3818E-02
333.96	1.5978E-02
334.17	1.3784E-02
334.38	1.6956E-02
334.59	1.9841E-02
334.80	1.3393E-02
335.01	1.4126E-02
335.22	1.4425E-02
335.43	1.5935E-02
335.64	1.6211E-02
335.86	1.8191E-02
336.07	1.4782E-02
336.28	1.3237E-02
336.49	1.8724E-02
336.70	1.5677E-02
336.91	1.7224E-02
337.12	1.6054E-02
337.33	1.3835E-02
337.54	1.4820E-02
337.75	1.5258E-02
337.96	1.5451E-02
338.17	1.5967E-02
338.38	1.7410E-02
338.59	1.5260E-02
338.80	1.3841E-02
339.01	1.6895E-02
339.22	1.6899E-02
339.43	1.6560E-02
339.65	1.7900E-02
339.86	1.6997E-02
340.07	1.7802E-02
340.28	1.7935E-02
340.49	1.4588E-02
340.70	1.6390E-02
340.91	1.7130E-02
341.12	1.6969E-02
341.33	1.7417E-02
341.54	1.6522E-02
341.75	1.6028E-02
341.96	1.6097E-02
342.17	1.6796E-02
342.38	1.4291E-02
342.59	1.4339E-02
342.80	1.7050E-02
343.01	1.7125E-02
343.22	1.6827E-02
343.43	1.5441E-02
343.64	1.7297E-02
343.85	1.4152E-02
344.06	1.8547E-02
344.27	1.7135E-02
344.48	1.7976E-02
344.69	1.5925E-02
344.90	1.5261E-02
345.11	1.7168E-02
345.32	1.6606E-02
345.53	1.6027E-02
345.74	1.6365E-02
345.95	1.5441E-02
346.16	1.5480E-02
346.37	1.6037E-02
346.58	1.6775E-02
346.79	1.6823E-02
347.00	1.7833E-02
347.21	1.8196E-02
347.42	1.7024E-02
347.63	1.5984E-02
347.84	1.7087E-02
348.05	1.7412E-02
348.26	1.6446E-02
348.47	1.7347E-02
348.68	1.6197E-02
348.89	1.5371E-02
349.10	1.7871E-02
349.31	2.1226E-02
349.52	1.7143E-02
349.73	1.8152E-02
349.94	1.8236E-02
350.15	1.8048E-02
350.36	1.7651E-02
350.57	1.8378E-02
350.78	1.9038E-02
350.99	1.9241E-02
351.20	2.0094E-02
351.41	2.0570E-02
351.62	1.8547E-02
351.83	1.8401E-02
352.04	1.9297E-02
352.25	1.8049E-02
352.46	1.7941E-02
352.67	1.8823E-02
352.88	1.7669E-02
353.09	1.7902E-02
353.30	1.7404E-02
353.51	1.8808E-02
353.72	1.9659E-02
353.93	1.7348E-02
354.14	1.8738E-02
354.35	1.8537E-02
354.56	1.9224E-02
354.77	1.9500E-02
354.98	1.9740E-02
355.19	1.9008E-02
355.39	1.7085E-02
355.60	1.7273E-02
355.81	1.7235E-02
356.02	1.9168E-02
356.23	1.6894E-02
356.44	1.5714E-02
356.65	1.9034E-02
356.86	1.8499E-02
357.07	1.7943E-02
357.28	1.8116E-02
357.49	1.8547E-02
357.70	1.8842E-02
357.91	1.7159E-02
358.12	1.6229E-02
358.33	1.7333E-02
358.54	1.8168E-02
358.75	1.7760E-02
358.96	1.7537E-02
359.16	1.5989E-02
359.37	1.8690E-02
359.58	1.8429E-02
359.79	1.6969E-02
360.00	1.8333E-02
360.21	1.9546E-02
360.42	1.7216E-02
360.63	1.8137E-02
360.84	2.0544E-02
361.05	1.8108E-02
361.26	1.7326E-02
361.47	1.9688E-02
361.68	1.9136E-02
361.88	1.8340E-02
362.09	1.9079E-02
362.30	2.0746E-02
362.51	1.8331E-02
362.72	1.9066E-02
362.93	2.0287E-02
363.14	2.1152E-02
363.35	2.0696E-02
363.56	1.9606E-02
363.77	1.9809E-02
363.98	2.0899E-02
364.18	2.2356E-02
364.39	2.1890E-02
364.60	2.2599E-02
364.81	2.3375E-02
365.02	2.2032E-02
365.23	2.3271E-02
365.44	2.2637E-02
365.65	2.1725E-02
365.86	2.2662E-02
366.07	2.2419E-02
366.27	2.3740E-02
366.48	2.4042E-02
366.69	2.3426E-02
366.90	2.1871E-02
367.11	2.2517E-02
367.32	2.2220E-02
367.53	2.4039E-02
367.74	2.2125E-02
367.95	2.2153E-02
368.15	2.3765E-02
368.36	2.2465E-02
368.57	2.2201E-02
368.78	2.2248E-02
368.99	2.3299E-02
369.20	2.1684E-02
369.41	2.5233E-02
369.62	2.2886E-02
369.82	2.3489E-02
370.03	2.0946E-02
370.24	2.3740E-02
370.45	2.0918E-02
370.66	1.9996E-02
370.87	2.1078E-02
371.08	2.0236E-02
371.28	2.0448E-02
371.49	2.0425E-02
371.70	1.9701E-02
371.91	1.8875E-02
372.12	1.9249E-02
372.33	2.0084E-02
372.54	1.9350E-02
372.74	1.9922E-02
372.95	1.8423E-02
373.16	1.9766E-02
373.37	1.8760E-02
373.58	1.9079E-02
373.79	1.9475E-02
374.00	1.7759E-02
374.20	1.9398E-02
374.41	1.9690E-02
374.62	1.8246E-02
374.83	1.9004E-02
375.04	2.0092E-02
375.25	2.0474E-02
375.45	2.0432E-02
375.66	2.1042E-02
375.87	2.0261E-02
376.08	2.2375E-02
376.29	2.2509E-02
376.50	2.1800E-02
376.70	2.0371E-02
376.91	2.0965E-02
377.12	2.0820E-02
377.33	2.0373E-02
377.54	2.1071E-02
377.75	2.2533E-02
377.95	2.1821E-02
378.16	2.0965E-02
378.37	2.0276E-02
378.58	2.1163E-02
378.79	2.0821E-02
379.00	2.0875E-02
379.20	1.9961E-02
379.41	2.0630E-02
379.62	1.9874E-02
379.83	1.9254E-02
380.04	1.8700E-02
380.24	2.0129E-02
380.45	1.6846E-02
380.66	1.8353E-02
380.87	1.8562E-02
381.08	1.8369E-02
381.28	1.7252E-02
381.49	1.7485E-02
381.70	1.7234E-02
381.91	1.7150E-02
382.12	1.7247E-02
382.32	1.6541E-02
382.53	1.7693E-02
382.74	1.6460E-02
382.95	1.7012E-02
383.16	1.7278E-02
383.36	1.6304E-02
383.57	1.6999E-02
383.78	1.7330E-02
383.99	1.6412E-02
384.20	1.6958E-02
384.40	1.7228E-02
384.61	1.8394E-02
384.82	1.8317E-02
385.03	1.9121E-02
385.23	1.8551E-02
385.44	1.7819E-02
385.65	1.9183E-02
385.86	1.8599E-02
386.07	2.0452E-02
386.27	1.8469E-02
386.48	1.8669E-02
386.69	1.9706E-02
386.90	1.9035E-02
387.10	1.8584E-02
387.31	2.0277E-02
387.52	1.9275E-02
387.73	2.0423E-02
387.94	2.0805E-02
388.14	2.0381E-02
388.35	2.1162E-02
388.56	2.2178E-02
388.77	2.1322E-02
388.97	2.2041E-02
389.18	2.1407E-02
389.39	2.1603E-02
389.60	2.2134E-02
389.80	2.2302E-02
390.01	2.2095E-02
390.22	2.1563E-02
390.43	2.0909E-02
390.63	2.1187E-02
390.84	2.1325E-02
391.05	2.1404E-02
391.26	2.0998E-02
391.46	2.0329E-02
391.67	2.0164E-02
391.88	1.8944E-02
392.09	1.9215E-02
392.29	2.0316E-02
392.50	1.9129E-02
392.71	1.9627E-02
392.92	1.9819E-02
393.12	1.9722E-02
393.33	2.0065E-02
393.54	1.9122E-02
393.74	1.8299E-02
393.95	1.8689E-02
394.16	2.0262E-02
394.37	1.9715E-02
394.57	1.9323E-02
394.78	1.9878E-02
394.99	2.0573E-02
395.19	1.9543E-02
395.40	1.9665E-02
395.61	2.0032E-02
395.82	2.1508E-02
396.02	2.0950E-02
396.23	2.2244E-02
396.44	2.3155E-02
396.65	2.1094E-02
396.85	2.3702E-02
397.06	2.3835E-02
397.27	2.3457E-02
397.47	2.4382E-02
397.68	2.5035E-02
397.89	2.4658E-02
398.09	2.5415E-02
398.30	2.5243E-02
398.51	2.6153E-02
398.72	2.6636E-02
398.92	2.8089E-02
399.13	2.7938E-02
399.34	3.0223E-02
399.54	3.0495E-02
399.75	3.0914E-02
399.96	2.9226E-02
400.16	3.0358E-02
400.37	3.0534E-02
400.58	3.0746E-02
400.78	3.1628E-02
400.99	2.9212E-02
401.20	3.1925E-02
401.41	3.2210E-02
401.61	3.0937E-02
401.82	3.1649E-02
402.03	3.1258E-02
402.23	3.1312E-02
402.44	3.1461E-02
402.65	3.0795E-02
402.85	3.1031E-02
403.06	3.0502E-02
403.27	2.9703E-02
403.47	3.1005E-02
403.68	3.0199E-02
403.89	3.1104E-02
404.09	3.0907E-02
404.30	2.9706E-02
404.51	3.0038E-02
404.71	3.0492E-02
404.92	3.0124E-02
405.13	2.9704E-02
405.33	2.9688E-02
405.54	2.9227E-02
405.75	3.0373E-02
405.95	3.0542E-02
406.16	2.8934E-02
406.37	3.0330E-02
406.57	2.9815E-02
406.78	3.0910E-02
406.99	3.0683E-02
407.19	3.1353E-02
407.40	3.0413E-02
407.60	3.0589E-02
407.81	3.0766E-02
408.02	3.0203E-02
408.22	2.9751E-02
408.43	3.1139E-02
408.64	3.0446E-02
408.84	3.0770E-02
409.05	2.9056E-02
409.26	3.1860E-02
409.46	3.0359E-02
409.67	3.1593E-02
409.87	3.2072E-02
410.08	3.0757E-02
410.29	3.1824E-02
410.49	3.1566E-02
410.70	3.1941E-02
410.91	3.1552E-02
411.11	3.2313E-02
411.32	3.1496E-02
411.52	3.0923E-02
411.73	3.2104E-02
411.94	3.1624E-02
412.14	3.2740E-02
412.35	3.1760E-02
412.56	3.2518E-02
412.76	3.2837E-02
412.97	3.1241E-02
413.17	3.2750E-02
413.38	3.3076E-02
413.59	3.2559E-02
413.79	3.2265E-02
414.00	3.2802E-02
414.20	3.3254E-02
414.41	3.1508E-02
414.62	3.3293E-02
414.82	3.1932E-02
415.03	3.0986E-02
415.23	3.2376E-02
415.44	3.1927E-02
415.65	3.2272E-02
415.85	3.1730E-02
416.06	3.2789E-02
416.26	3.2589E-02
416.47	3.1911E-02
416.68	3.2513E-02
416.88	3.3095E-02
417.09	3.1342E-02
417.29	3.2024E-02
417.50	3.2445E-02
417.71	3.2450E-02
417.91	3.2250E-02
418.12	3.2747E-02
418.32	3.2582E-02
418.53	3.2985E-02
418.73	3.1000E-02
418.94	3.1745E-02
419.15	3.1889E-02
419.35	3.1499E-02
419.56	3.2022E-02
419.76	3.0632E-02
419.97	3.3028E-02
420.17	3.0782E-02
420.38	3.0870E-02
420.59	3.1825E-02
420.79	3.3066E-02
421.00	3.0679E-02
421.20	3.0862E-02
421.41	3.1353E-02
421.61	3.1335E-02
421.82	3.2048E-02
422.02	3.1509E-02
422.23	2.9934E-02
422.44	3.2065E-02
422.64	3.0629E-02
422.85	3.1143E-02
423.05	3.1456E-02
423.26	3.0945E-02
423.46	3.0883E-02
423.67	2.9700E-02
423.87	3.0522E-02
424.08	3.0347E-02
424.29	3.0689E-02
424.49	3.1343E-02
424.70	2.9528E-02
424.90	3.0832E-02
425.11	3.1063E-02
425.31	3.1025E-02
425.52	3.0597E-02
425.72	2.9790E-02
425.93	2.9844E-02
426.13	2.9736E-02
426.34	2.8898E-02
426.54	2.9807E-02
426.75	2.8833E-02
426.95	2.9096E-02
427.16	2.9074E-02
427.36	2.8262E-02
427.57	2.6904E-02
427.78	2.7849E-02
427.98	2.7564E-02
428.19	2.8151E-02
428.39	2.7430E-02
428.60	2.7180E-02
428.80	2.6815E-02
429.01	2.8249E-02
429.21	2.6009E-02
429.42	2.7548E-02
429.62	2.7516E-02
429.83	2.6917E-02
430.03	2.6113E-02
430.24	2.7237E-02
430.44	2.6264E-02
430.65	2.7394E-02
430.85	2.8003E-02
431.06	2.7931E-02
431.26	2.7844E-02
431.47	2.7244E-02
431.67	2.9525E-02
431.88	2.8513E-02
432.08	2.8908E-02
432.29	2.9558E-02
432.49	2.9197E-02
432.70	2.9578E-02
432.90	3.0447E-02
433.11	3.0015E-02
433.31	2.9165E-02
433.52	3.0984E-02
433.72	3.0515E-02
433.93	3.0623E-02
434.13	3.0930E-02
434.34	3.1688E-02
434.54	3.0421E-02
434.74	3.1258E-02
434.95	3.1177E-02
435.15	3.1589E-02
435.36	3.1253E-02
435.56	3.0514E-02
435.77	3.1048E-02
435.97	3.1165E-02
436.18	3.2339E-02
436.38	3.1958E-02
436.59	3.0698E-02
436.79	3.1720E-02
437.00	3.2163E-02
437.20	3.0837E-02
437.41	3.0172E-02
437.61	3.2187E-02
437.81	3.1241E-02
438.02	3.0787E-02
438.22	3.1054E-02
438.43	3.1181E-02
438.63	3.2094E-02
438.84	3.1867E-02
439.04	3.1404E-02
439.25	3.1702E-02
439.45	3.1199E-02
439.66	3.1365E-02
439.86	3.1808E-02
440.06	3.2877E-02
440.27	3.1595E-02
440.47	3.1550E-02
440.68	3.2446E-02
440.88	3.2797E-02
441.09	3.2851E-02
441.29	3.3741E-02
441.49	3.2947E-02
441.70	3.4221E-02
441.90	3.2352E-02
442.11	3.3788E-02
442.31	3.3932E-02
442.52	3.4221E-02
442.72	3.1859E-02
442.92	3.3206E-02
443.13	3.3445E-02
443.33	3.3671E-02
443.54	3.3117E-02
443.74	3.3932E-02
443.95	3.3661E-02
444.15	3.3314E-02
444.35	3.4072E-02
444.56	3.3030E-02
444.76	3.2993E-02
444.97	3.5368E-02
445.17	3.4293E-02
445.37	3.4806E-02
445.58	3.2457E-02
445.78	3.3573E-02
445.99	3.3143E-02
446.19	3.3339E-02
446.39	3.3366E-02
446.60	3.3295E-02
446.80	3.3956E-02
447.01	3.4038E-02
447.21	3.5083E-02
447.41	3.3500E-02
447.62	3.5102E-02
447.82	3.4199E-02
448.03	3.5329E-02
448.23	3.5084E-02
448.43	3.4814E-02
448.64	3.5748E-02
448.84	3.5134E-02
449.05	3.4201E-02
449.25	3.5441E-02
449.45	3.4925E-02
449.66	3.5397E-02
449.86	3.4730E-02
450.07	3.4387E-02
450.27	3.5748E-02
450.47	3.4472E-02
450.68	3.5434E-02
450.88	3.4224E-02
451.08	3.4792E-02
451.29	3.3746E-02
451.49	3.5326E-02
451.70	3.4887E-02
451.90	3.5718E-02
452.10	3.4961E-02
452.31	3.3687E-02
452.51	3.4214E-02
452.71	3.3936E-02
452.92	3.4732E-02
453.12	3.4923E-02
453.32	3.5006E-02
453.53	3.4182E-02
453.73	3.3827E-02
453.93	3.3605E-02
454.14	3.4494E-02
454.34	3.4978E-02
454.55	3.4794E-02
454.75	3.5105E-02
454.95	3.3017E-02
455.16	3.6085E-02
455.36	3.3491E-02
455.56	3.5609E-02
455.77	3.5519E-02
455.97	3.5628E-02
456.17	3.4151E-02
456.38	3.5592E-02
456.58	3.5819E-02
456.78	3.5058E-02
456.99	3.3404E-02
457.19	3.5308E-02
457.39	3.4699E-02
457.60	3.5057E-02
457.80	3.4856E-02
458.00	3.4629E-02
458.21	3.5944E-02
458.41	3.5579E-02
458.61	3.4611E-02
458.82	3.4498E-02
459.02	3.4192E-02
459.22	3.5787E-02
459.43	3.5896E-02
459.63	3.5721E-02
459.83	3.3858E-02
460.03	3.5587E-02
460.24	3.5215E-02
460.44	3.4263E-02
460.64	3.4685E-02
460.85	3.6126E-02
461.05	3.4628E-02
461.25	3.4971E-02
461.46	3.4268E-02
461.66	3.3768E-02
461.86	3.4808E-02
462.07	3.5467E-02
462.27	3.4758E-02
462.47	3.5354E-02
462.67	3.4313E-02
462.88	3.5550E-02
463.08	3.3532E-02
463.28	3.4484E-02
463.49	3.4361E-02
463.69	3.4899E-02
463.89	3.3780E-02
464.09	3.4080E-02
464.30	3.4169E-02
464.50	3.5031E-02
464.70	3.4095E-02
464.91	3.3525E-02
465.11	3.3522E-02
465.31	3.2932E-02
465.51	3.3412E-02
465.72	3.4404E-02
465.92	3.3749E-02
466.12	3.2779E-02
466.33	3.3373E-02
466.53	3.3957E-02
466.73	3.4429E-02
466.93	3.4025E-02
467.14	3.2707E-02
467.34	3.5173E-02
467.54	3.4201E-02
467.74	3.3212E-02
467.95	3.3163E-02
468.15	3.2948E-02
468.35	3.3991E-02
468.55	3.4402E-02
468.76	3.3518E-02
468.96	3.3567E-02
469.16	3.2801E-02
469.37	3.2937E-02
469.57	3.4533E-02
469.77	3.3952E-02
469.97	3.3638E-02
470.18	3.4645E-02
470.38	3.4033E-02
470.58	3.3542E-02
470.78	3.4143E-02
470.99	3.5299E-02
471.19	3.3632E-02
471.39	3.4189E-02
471.59	3.2781E-02
471.79	3.3687E-02
472.00	3.3942E-02
472.20	3.3949E-02
472.40	3.2617E-02
472.60	3.4526E-02
472.81	3.5295E-02
473.01	3.5084E-02
473.21	3.3772E-02
473.41	3.2829E-02
473.62	3.3639E-02
473.82	3.4396E-02
474.02	3.4630E-02
474.22	3.4436E-02
474.42	3.4667E-02
474.63	3.4323E-02
474.83	3.4696E-02
475.03	3.3985E-02
475.23	3.4523E-02
475.44	3.5395E-02
475.64	3.3107E-02
475.84	3.3983E-02
476.04	3.3513E-02
476.24	3.4842E-02
476.45	3.4607E-02
476.65	3.3462E-02
476.85	3.3589E-02
477.05	3.4278E-02
477.25	3.4867E-02
477.46	3.4511E-02
477.66	3.4393E-02
477.86	3.4900E-02
478.06	3.2870E-02
478.26	3.4194E-02
478.47	3.4078E-02
478.67	3.6886E-02
478.87	3.4120E-02
479.07	3.3931E-02
479.27	3.5141E-02
479.47	3.4967E-02
479.68	3.5081E-02
479.88	3.5060E-02
480.08	3.4600E-02
480.28	3.4907E-02
480.48	3.4145E-02
480.69	3.5680E-02
480.89	3.3562E-02
481.09	3.4621E-02
481.29	3.5104E-02
481.49	3.3396E-02
481.69	3.4425E-02
481.90	3.4683E-02
482.10	3.3933E-02
482.30	3.2914E-02
482.50	3.3524E-02
482.70	3.3160E-02
482.90	3.2992E-02
483.11	3.3264E-02
483.31	3.2842E-02
483.51	3.2075E-02
483.71	3.2118E-02
483.91	3.1958E-02
484.11	3.2474E-02
484.32	3.1728E-02
484.52	3.2105E-02
484.72	3.1614E-02
484.92	3.0827E-02
485.12	3.0536E-02
485.32	3.0642E-02
485.52	2.9989E-02
485.73	3.0210E-02
485.93	3.0461E-02
486.13	3.0241E-02
486.33	3.0613E-02
486.53	3.1009E-02
486.73	3.1410E-02
486.93	3.0400E-02
487.14	3.1493E-02
487.34	3.1093E-02
487.54	3.1469E-02
487.74	3.1530E-02
487.94	3.0600E-02
488.14	3.1529E-02
488.34	3.1590E-02
488.54	3.1811E-02
488.75	3.1464E-02
488.95	3.1786E-02
489.15	3.1461E-02
489.35	3.1329E-02
489.55	3.1796E-02
489.75	3.2030E-02
489.95	3.1648E-02
490.15	3.1841E-02
490.36	3.2310E-02
490.56	3.1896E-02
490.76	3.2523E-02
490.96	3.1636E-02
491.16	3.2333E-02
491.36	3.2125E-02
491.56	3.2169E-02
491.76	3.1236E-02
491.96	3.2091E-02
492.17	3.1705E-02
492.37	3.2303E-02
492.57	3.2609E-02
492.77	3.2827E-02
492.97	3.2565E-02
493.17	3.2643E-02
493.37	3.2960E-02
493.57	3.2599E-02
493.77	3.2410E-02
493.97	3.3612E-02
494.17	3.2878E-02
494.38	3.3358E-02
494.58	3.2890E-02
494.78	3.2607E-02
494.98	3.2774E-02
495.18	3.3042E-02
495.38	3.2965E-02
495.58	3.3131E-02
495.78	3.3340E-02
495.98	3.3390E-02
496.18	3.3183E-02
496.38	3.2902E-02
496.58	3.2621E-02
496.78	3.3430E-02
496.99	3.2924E-02
497.19	3.2808E-02
497.39	3.3082E-02
497.59	3.2717E-02
497.79	3.2254E-02
497.99	3.2969E-02
498.19	3.2652E-02
498.39	3.2900E-02
498.59	3.2300E-02
498.79	3.2240E-02
498.99	3.2437E-02
499.19	3.2544E-02
499.39	3.2660E-02
499.59	3.1966E-02
499.79	3.2014E-02
499.99	3.2026E-02
500.19	3.2342E-02
500.40	3.2399E-02
500.60	3.2318E-02
500.80	3.2637E-02
501.00	3.2106E-02
501.20	3.2389E-02
501.40	3.2611E-02
501.60	3.2535E-02
501.80	3.2531E-02
502.00	3.2840E-02
502.20	3.2790E-02
502.40	3.2984E-02
502.60	3.2847E-02
502.80	3.3792E-02
503.00	3.3772E-02
503.20	3.3690E-02
503.40	3.3774E-02
503.60	3.4096E-02
503.80	3.4626E-02
504.00	3.4593E-02
504.20	3.5063E-02
504.40	3.5125E-02
504.60	3.5595E-02
504.80	3.5717E-02
505.00	3.5816E-02
505.20	3.6275E-02
505.40	3.6250E-02
505.60	3.6253E-02
505.80	3.6642E-02
506.00	3.6803E-02
506.20	3.6919E-02
506.40	3.7112E-02
506.60	3.7308E-02
506.80	3.7225E-02
507.00	3.7717E-02
507.20	3.8005E-02
507.40	3.8380E-02
507.60	3.8188E-02
507.80	3.8544E-02
508.00	3.8806E-02
508.20	3.9367E-02
508.40	3.9339E-02
508.60	3.9268E-02
508.80	3.9225E-02
509.00	4.0352E-02
509.20	4.0247E-02
509.40	4.0345E-02
509.60	4.0763E-02
509.80	4.0766E-02
510.00	4.1539E-02
510.20	4.1673E-02
510.40	4.1964E-02
510.60	4.1870E-02
510.80	4.1901E-02
511.00	4.2109E-02
511.20	4.2894E-02
511.40	4.2636E-02
511.60	4.2910E-02
511.80	4.3212E-02
512.00	4.3453E-02
512.20	4.3823E-02
512.40	4.3705E-02
512.60	4.3956E-02
512.80	4.4119E-02
513.00	4.4514E-02
513.20	4.4460E-02
513.40	4.4398E-02
513.59	4.4300E-02
513.79	4.4775E-02
513.99	4.4733E-02
514.19	4.4827E-02
514.39	4.4662E-02
514.59	4.5057E-02
514.79	4.4874E-02
514.99	4.4939E-02
515.19	4.5235E-02
515.39	4.5458E-02
515.59	4.5662E-02
515.79	4.5230E-02
515.99	4.6140E-02
516.19	4.6154E-02
516.39	4.6198E-02
516.59	4.6520E-02
516.79	4.7109E-02
516.98	4.6770E-02
517.18	4.7621E-02
517.38	4.7778E-02
517.58	4.8115E-02
517.78	4.8541E-02
517.98	4.8992E-02
518.18	4.9586E-02
518.38	5.0709E-02
518.58	5.0744E-02
518.78	5.1207E-02
518.98	5.1656E-02
519.18	5.2331E-02
519.38	5.3088E-02
519.57	5.3465E-02
519.77	5.3637E-02
519.97	5.4539E-02
520.17	5.4811E-02
520.37	5.5273E-02
520.57	5.5950E-02
520.77	5.6501E-02
520.97	5.6861E-02
521.17	5.7158E-02
521.37	5.7869E-02
521.57	5.8628E-02
521.76	5.8658E-02
521.96	5.9334E-02
522.16	5.9594E-02
522.36	6.0413E-02
522.56	6.0022E-02
522.76	6.0607E-02
522.96	6.1256E-02
523.16	6.1254E-02
523.36	6.1870E-02
523.55	6.1674E-02
523.75	6.1979E-02
523.95	6.2252E-02
524.15	6.2133E-02
524.35	6.2616E-02
524.55	6.2923E-02
524.75	6.3358E-02
524.95	6.3673E-02
525.14	6.3691E-02
525.34	6.3931E-02
525.54	6.3989E-02
525.74	6.4565E-02
525.94	6.4828E-02
526.14	6.5442E-02
526.34	6.5569E-02
526.54	6.6191E-02
526.73	6.6017E-02
526.93	6.6952E-02
527.13	6.7419E-02
527.33	6.7987E-02
527.53	6.8651E-02
527.73	6.8810E-02
527.93	6.9599E-02
528.12	6.9611E-02
528.32	7.0384E-02
528.52	7.1289E-02
528.72	7.1858E-02
528.92	7.2009E-02
529.12	7.2389E-02
529.32	7.2921E-02
529.51	7.3369E-02
529.71	7.3661E-02
529.91	7.3833E-02
530.11	7.4402E-02
530.31	7.4992E-02
530.51	7.4829E-02
530.70	7.4942E-02
530.90	7.5534E-02
531.10	7.5493E-02
531.30	7.5930E-02
531.50	7.6041E-02
531.70	7.6336E-02
531.89	7.6231E-02
532.09	7.6515E-02
532.29	7.6659E-02
532.49	7.7311E-02
532.69	7.7295E-02
532.88	7.7463E-02
533.08	7.7431E-02
533.28	7.7964E-02
533.48	7.8707E-02
533.68	7.8664E-02
533.88	7.9406E-02
534.07	7.9579E-02
534.27	7.9793E-02
534.47	8.0280E-02
534.67	7.9815E-02
534.87	8.0705E-02
535.06	8.0789E-02
535.26	8.0746E-02
535.46	8.0795E-02
535.66	8.1844E-02
535.86	8.1354E-02
536.05	8.1453E-02
536.25	8.1769E-02
536.45	8.1951E-02
536.65	8.1992E-02
536.85	8.1891E-02
537.04	8.2173E-02
537.24	8.2645E-02
537.44	8.1726E-02
537.64	8.1495E-02
537.83	8.2236E-02
538.03	8.2361E-02
538.23	8.2707E-02
538.43	8.2601E-02
538.63	8.2214E-02
538.82	8.2521E-02
539.02	8.2579E-02
539.22	8.2988E-02
539.42	8.2638E-02
539.61	8.3109E-02
539.81	8.3212E-02
540.01	8.2924E-02
540.21	8.3251E-02
540.41	8.3242E-02
540.60	8.3460E-02
540.80	8.3620E-02
541.00	8.3856E-02
541.20	8.4482E-02
541.39	8.4559E-02
541.59	8.4748E-02
541.79	8.5016E-02
541.99	8.5676E-02
542.18	8.5586E-02
542.38	8.5744E-02
542.58	8.5946E-02
542.78	8.6396E-02
542.97	8.6107E-02
543.17	8.6785E-02
543.37	8.6570E-02
543.57	8.7375E-02
543.76	8.7939E-02
543.96	8.7927E-02
544.16	8.7667E-02
544.36	8.8170E-02
544.55	8.8847E-02
544.75	8.8700E-02
544.95	8.9106E-02
545.14	8.8286E-02
545.34	8.9279E-02
545.54	8.8934E-02
545.74	8.9262E-02
545.93	8.9811E-02
546.13	8.9850E-02
546.33	8.9719E-02
546.53	8.9717E-02
546.72	9.0576E-02
546.92	9.0592E-02
547.12	9.0334E-02
547.31	9.0796E-02
547.51	9.0810E-02
547.71	9.1424E-02
547.91	9.1478E-02
548.10	9.0936E-02
548.30	9.1412E-02
548.50	9.2061E-02
548.69	9.2017E-02
548.89	9.1867E-02
549.09	9.2094E-02
549.29	9.2065E-02
549.48	9.3219E-02
549.68	9.2199E-02
549.88	9.2940E-02
550.07	9.3087E-02
550.27	9.3004E-02
550.47	9.1060E-02
550.66	9.3836E-02
550.86	9.2792E-02
551.06	9.4065E-02
551.25	9.3455E-02
551.45	9.4263E-02
551.65	9.4380E-02
551.85	9.4834E-02
552.04	9.3720E-02
552.24	9.4474E-02
552.44	9.4164E-02
552.63	9.4317E-02
552.83	9.4872E-02
553.03	9.4457E-02
553.22	9.5525E-02
553.42	9.4867E-02
553.62	9.5720E-02
553.81	9.4943E-02
554.01	9.5458E-02
554.21	9.4898E-02
554.40	9.5356E-02
554.60	9.5095E-02
554.80	9.5294E-02
554.99	9.5086E-02
555.19	9.4968E-02
555.39	9.5050E-02
555.58	9.4538E-02
555.78	9.4587E-02
555.98	9.4290E-02
556.17	9.4159E-02
556.37	9.4239E-02
556.56	9.4151E-02
556.76	9.4008E-02
556.96	9.3485E-02
557.15	9.3682E-02
557.35	9.3384E-02
557.55	9.3286E-02
557.74	9.3147E-02
557.94	9.3516E-02
558.14	9.3598E-02
558.33	9.2907E-02
558.53	9.2768E-02
558.73	9.3180E-02
558.92	9.2645E-02
559.12	9.3605E-02
559.31	9.3585E-02
559.51	9.3963E-02
559.71	9.3320E-02
559.90	9.3705E-02
560.10	9.3606E-02
560.30	9.3505E-02
560.49	9.3217E-02
560.69	9.3613E-02
560.88	9.3971E-02
561.08	9.2965E-02
561.28	9.3024E-02
561.47	9.3406E-02
561.67	9.3430E-02
561.86	9.2889E-02
562.06	9.3157E-02
562.26	9.3426E-02
562.45	9.2979E-02
562.65	9.3181E-02
562.84	9.2256E-02
563.04	9.2480E-02
563.24	9.2377E-02
563.43	9.2855E-02
563.63	9.2685E-02
563.82	9.2132E-02
564.02	9.2331E-02
564.22	9.2443E-02
564.41	9.1570E-02
564.61	9.1809E-02
564.80	9.1756E-02
565.00	9.1225E-02
565.20	9.1712E-02
565.39	9.0636E-02
565.59	9.0229E-02
565.78	9.0658E-02
565.98	8.9935E-02
566.18	9.0714E-02
566.37	9.0137E-02
566.57	8.9647E-02
566.76	8.9232E-02
566.96	8.9825E-02
567.15	8.9041E-02
567.35	8.9692E-02
567.55	8.8935E-02
567.74	8.8802E-02
567.94	8.8189E-02
568.13	8.8436E-02
568.33	8.8724E-02
568.52	8.8461E-02
568.72	8.7776E-02
568.91	8.7418E-02
569.11	8.7337E-02
569.31	8.7902E-02
569.50	8.6952E-02
569.70	8.7271E-02
569.89	8.6982E-02
570.09	8.6684E-02
570.28	8.6369E-02
570.48	8.6597E-02
570.67	8.7136E-02
570.87	8.6099E-02
571.07	8.6048E-02
571.26	8.6581E-02
571.46	8.6312E-02
571.65	8.6380E-02
571.85	8.6580E-02
572.04	8.6202E-02
572.24	8.6789E-02
572.43	8.5988E-02
572.63	8.6455E-02
572.82	8.5857E-02
573.02	8.6264E-02
573.21	8.5614E-02
573.41	8.5927E-02
573.60	8.6285E-02
573.80	8.5925E-02
573.99	8.5452E-02
574.19	8.5911E-02
574.38	8.5246E-02
574.58	8.5301E-02
574.78	8.4468E-02
574.97	8.5091E-02
575.17	8.4730E-02
575.36	8.4210E-02
575.56	8.3800E-02
575.75	8.4741E-02
575.95	8.3949E-02
576.14	8.3468E-02
576.34	8.4223E-02
576.53	8.3404E-02
576.73	8.3478E-02
576.92	8.2823E-02
577.12	8.3831E-02
577.31	8.2248E-02
577.51	8.3613E-02
577.70	8.3015E-02
577.90	8.2894E-02
578.09	8.3177E-02
578.29	8.2599E-02
578.48	8.3312E-02
578.68	8.2679E-02
578.87	8.3713E-02
579.06	8.2570E-02
579.26	8.3050E-02
579.45	8.2716E-02
579.65	8.3791E-02
579.84	8.3042E-02
580.04	8.3587E-02
580.23	8.3911E-02
580.43	8.2772E-02
580.62	8.3506E-02
580.82	8.3585E-02
581.01	8.3311E-02
581.21	8.3368E-02
581.40	8.3221E-02
581.60	8.3968E-02
581.79	8.4208E-02
581.99	8.3449E-02
582.18	8.3388E-02
582.37	8.3842E-02
582.57	8.3812E-02
582.76	8.4193E-02
582.96	8.4139E-02
583.15	8.3870E-02
583.35	8.3653E-02
583.54	8.3628E-02
583.74	8.3450E-02
583.93	8.2877E-02
584.12	8.2388E-02
584.32	8.3415E-02
584.51	8.2722E-02
584.71	8.1877E-02
584.90	8.1866E-02
585.10	8.1830E-02
585.29	8.1652E-02
585.49	8.1531E-02
585.68	8.1415E-02
585.87	8.0716E-02
586.07	8.0371E-02
586.26	7.9922E-02
586.46	7.9484E-02
586.65	7.9047E-02
586.85	7.9075E-02
587.04	7.7730E-02
587.23	7.8570E-02
587.43	7.8104E-02
587.62	7.6633E-02
587.82	7.7501E-02
588.01	7.6661E-02
588.20	7.6662E-02
588.40	7.5883E-02
588.59	7.6363E-02
588.79	7.6466E-02
588.98	7.6736E-02
589.18	7.6180E-02
589.37	7.6592E-02
589.56	7.5702E-02
589.76	7.5541E-02
589.95	7.6852E-02
590.15	7.6392E-02
590.34	7.5922E-02
590.53	7.7142E-02
590.73	7.6557E-02
590.92	7.6744E-02
591.11	7.7397E-02
591.31	7.7503E-02
591.50	7.8013E-02
591.70	7.7693E-02
591.89	7.8473E-02
592.08	7.7534E-02
592.28	7.7332E-02
592.47	7.8516E-02
592.67	7.8326E-02
592.86	7.8330E-02
593.05	7.7568E-02
593.25	7.8508E-02
593.44	7.8197E-02
593.63	7.9136E-02
593.83	7.8503E-02
594.02	7.9579E-02
594.22	7.9561E-02
594.41	8.0167E-02
594.60	7.9493E-02
594.80	7.9676E-02
594.99	7.9878E-02
595.18	8.0067E-02
595.38	7.9852E-02
595.57	8.0152E-02
595.76	8.0469E-02
595.96	8.0386E-02
596.15	7.9721E-02
596.34	8.1573E-02
596.54	8.1295E-02
596.73	8.0903E-02
596.93	8.1264E-02
597.12	8.0849E-02
597.31	8.1442E-02
597.51	8.1065E-02
597.70	8.1275E-02
597.89	8.0869E-02
598.09	8.0660E-02
598.28	8.2179E-02
598.47	8.0928E-02
598.67	8.1194E-02
598.86	8.0616E-02
599.05	8.1749E-02
599.25	8.1150E-02
599.44	8.1649E-02
599.63	8.2107E-02
599.83	8.1259E-02
600.02	8.1405E-02
600.21	8.1435E-02
600.41	8.1706E-02
600.60	8.1046E-02
600.79	8.1771E-02
600.98	8.1920E-02
601.18	8.2784E-02
601.37	8.1628E-02
601.56	8.1873E-02
601.76	8.3461E-02
601.95	8.2167E-02
602.14	8.2493E-02
602.34	8.2390E-02
602.53	8.3169E-02
602.72	8.2320E-02
602.92	8.3087E-02
603.11	8.2745E-02
603.30	8.3286E-02
603.49	8.2773E-02
603.69	8.3952E-02
603.88	8.3291E-02
604.07	8.3884E-02
604.27	8.3379E-02
604.46	8.2758E-02
604.65	8.3427E-02
604.84	8.3272E-02
605.04	8.3622E-02
605.23	8.3254E-02
605.42	8.3245E-02
605.62	8.3490E-02
605.81	8.2705E-02
606.00	8.2908E-02
606.19	8.3401E-02
606.39	8.3487E-02
606.58	8.2726E-02
606.77	8.2829E-02
606.97	8.2130E-02
607.16	8.2816E-02
607.35	8.3044E-02
607.54	8.2345E-02
607.74	8.2898E-02
607.93	8.2931E-02
608.12	8.1859E-02
608.31	8.2283E-02
608.51	8.2449E-02
608.70	8.1793E-02
608.89	8.1645E-02
609.08	8.1128E-02
609.28	8.1706E-02
609.47	8.1854E-02
609.66	8.1980E-02
609.85	8.2122E-02
610.05	8.2107E-02
610.24	8.1322E-02
610.43	8.1608E-02
610.62	8.1239E-02
610.82	8.0941E-02
611.01	8.1535E-02
611.20	8.1177E-02
611.39	8.1220E-02
611.59	8.1054E-02
611.78	8.1489E-02
611.97	8.1227E-02
612.16	8.1897E-02
612.35	8.0596E-02
612.55	8.0515E-02
612.74	8.1059E-02
612.93	8.0854E-02
613.12	7.9818E-02
613.32	8.0423E-02
613.51	8.0495E-02
613.70	8.0296E-02
613.89	8.0202E-02
614.08	8.0343E-02
614.28	8.0011E-02
614.47	7.9489E-02
614.66	7.9784E-02
614.85	8.0262E-02
615.04	8.0071E-02
615.24	8.0916E-02
615.43	8.0036E-02
615.62	7.9736E-02
615.81	7.9867E-02
616.00	7.8874E-02
616.20	7.9791E-02
616.39	7.9977E-02
616.58	7.9995E-02
616.77	8.0153E-02
616.96	8.1423E-02
617.16	8.1392E-02
617.35	8.1145E-02
617.54	8.0658E-02
617.73	8.0529E-02
617.92	8.0764E-02
618.12	8.1727E-02
618.31	8.1382E-02
618.50	8.1736E-02
618.69	8.1407E-02
618.88	8.2764E-02
619.07	8.2143E-02
619.27	8.2370E-02
619.46	8.2618E-02
619.65	8.3379E-02
619.84	8.2368E-02
620.03	8.2271E-02
620.22	8.3429E-02
620.42	8.1630E-02
620.61	8.3711E-02
620.80	8.3365E-02
620.99	8.2997E-02
621.18	8.3917E-02
621.37	8.2734E-02
621.57	8.1597E-02
621.76	8.2880E-02
621.95	8.2543E-02
622.14	8.1851E-02
622.33	8.1422E-02
622.52	8.2017E-02
622.71	8.2675E-02
622.91	8.2890E-02
623.10	8.2585E-02
623.29	8.2292E-02
623.48	8.1765E-02
623.67	8.2518E-02
623.86	8.2344E-02
624.05	8.2152E-02
624.25	8.1293E-02
624.44	8.2275E-02
624.63	8.2796E-02
624.82	8.2059E-02
625.01	8.1593E-02
625.20	8.2513E-02
625.39	8.1158E-02
625.58	8.2380E-02
625.78	8.2769E-02
625.97	8.1250E-02
626.16	8.1814E-02
626.35	8.1684E-02
626.54	8.2586E-02
626.73	8.2504E-02
626.92	8.1894E-02
627.11	8.1769E-02
627.31	8.1680E-02
627.50	8.1478E-02
627.69	8.1936E-02
627.88	8.2207E-02
628.07	8.0058E-02
628.26	8.1379E-02
628.45	8.0934E-02
628.64	8.1172E-02
628.83	8.1039E-02
629.02	7.9624E-02
629.22	8.2102E-02
629.41	8.0503E-02
629.60	7.9488E-02
629.79	8.1531E-02
629.98	8.0451E-02
630.17	8.1206E-02
630.36	8.0982E-02
630.55	8.1153E-02
630.74	8.1351E-02
630.93	8.2038E-02
631.12	8.0600E-02
631.31	8.0847E-02
631.51	8.1980E-02
631.70	8.1785E-02
631.89	8.0979E-02
632.08	8.1216E-02
632.27	8.1704E-02
632.46	8.1435E-02
632.65	8.1576E-02
632.84	8.0667E-02
633.03	8.2618E-02
633.22	8.1773E-02
633.41	8.2742E-02
633.60	8.2642E-02
633.79	8.1872E-02
633.98	8.0800E-02
634.17	8.1916E-02
634.37	8.1738E-02
634.56	8.2337E-02
634.75	8.0786E-02
634.94	8.2028E-02
635.13	8.1310E-02
635.32	8.1956E-02
635.51	8.1764E-02
635.70	8.0652E-02
635.89	8.2671E-02
636.08	8.1138E-02
636.27	8.0321E-02
636.46	8.1537E-02
636.65	8.0763E-02
636.84	7.9890E-02
637.03	8.1108E-02
637.22	8.0818E-02
637.41	8.0108E-02
637.60	8.0395E-02
637.79	8.0346E-02
637.98	7.9859E-02
638.17	7.9728E-02
638.36	7.8927E-02
638.55	7.8040E-02
638.74	7.8104E-02
638.93	7.8441E-02
639.12	7.7892E-02
639.31	7.8113E-02
639.50	7.7642E-02
639.69	7.7230E-02
639.88	7.8249E-02
640.07	7.7119E-02
640.26	7.8021E-02
640.45	7.7440E-02
640.64	7.7523E-02
640.83	7.7372E-02
641.02	7.7958E-02
641.21	7.6812E-02
641.40	7.5486E-02
641.59	7.6958E-02
641.78	7.7146E-02
641.97	7.6716E-02
642.16	7.6981E-02
642.35	7.6527E-02
642.54	7.6511E-02
642.73	7.5850E-02
642.92	7.3545E-02
643.11	7.5961E-02
643.30	7.5917E-02
643.49	7.4540E-02
643.68	7.4715E-02
643.87	7.3402E-02
644.06	7.4242E-02
644.25	7.3106E-02
644.44	7.3105E-02
644.63	7.2776E-02
644.82	7.2551E-02
645.01	7.2944E-02
645.20	7.2579E-02
645.39	7.1668E-02
645.58	7.1175E-02
645.77	7.1046E-02
645.96	7.1907E-02
646.15	7.0996E-02
646.34	7.0967E-02
646.53	7.0492E-02
646.72	7.0578E-02
646.91	6.9398E-02
647.10	7.1364E-02
647.29	6.9714E-02
647.47	7.0383E-02
647.66	6.9415E-02
647.85	6.8667E-02
648.04	6.8745E-02
648.23	6.8864E-02
648.42	7.0855E-02
648.61	6.7973E-02
648.80	6.9152E-02
648.99	6.9785E-02
649.18	6.8238E-02
649.37	6.9409E-02
649.56	6.8854E-02
649.75	6.8515E-02
649.94	6.9692E-02
650.13	6.9217E-02
650.31	6.9443E-02
650.50	6.8750E-02
650.69	6.9467E-02
650.88	6.8856E-02
651.07	6.8841E-02
651.26	6.9278E-02
651.45	7.0339E-02
651.64	6.9336E-02
651.83	6.8349E-02
652.02	6.8931E-02
652.21	6.8108E-02
652.40	6.7899E-02
652.58	6.9664E-02
652.77	6.7194E-02
652.96	6.6584E-02
653.15	6.7647E-02
653.34	6.7388E-02
653.53	6.7195E-02
653.72	6.6525E-02
653.91	6.5003E-02
654.10	6.5335E-02
654.29	6.4374E-02
654.47	6.6071E-02
654.66	6.3342E-02
654.85	6.3668E-02
655.04	6.2898E-02
655.23	6.3793E-02
655.42	6.2203E-02
655.61	6.3401E-02
655.80	6.3109E-02
655.98	6.3982E-02
656.17	6.3721E-02
656.36	6.4374E-02
656.55	6.3595E-02
656.74	6.5377E-02
656.93	6.5214E-02
657.12	6.5563E-02
657.31	6.4377E-02
657.49	6.6811E-02
657.68	6.6428E-02
657.87	6.4790E-02
658.06	6.7550E-02
658.25	6.6104E-02
658.44	6.7309E-02
658.63	6.6558E-02
658.81	6.6384E-02
659.00	6.7417E-02
659.19	6.6973E-02
659.38	6.8846E-02
659.57	6.8812E-02
659.76	6.7471E-02
659.95	6.9056E-02
660.13	6.6594E-02
660.32	6.8033E-02
660.51	6.7432E-02
660.70	6.8337E-02
660.89	6.7265E-02
661.08	6.7480E-02
661.26	6.6754E-02
661.45	6.7630E-02
661.64	6.6791E-02
661.83	6.6410E-02
662.02	6.6719E-02
662.21	6.7326E-02
662.39	6.7723E-02
662.58	6.6569E-02
662.77	6.8150E-02
662.96	6.7101E-02
663.15	6.5803E-02
663.33	6.7530E-02
663.52	6.6136E-02
663.71	6.6159E-02
663.90	6.6177E-02
664.09	6.4945E-02
664.28	6.5800E-02
664.46	6.4968E-02
664.65	6.5103E-02
664.84	6.4353E-02
665.03	6.5557E-02
665.22	6.5983E-02
665.40	6.5831E-02
665.59	6.4974E-02
665.78	6.4972E-02
665.97	6.4921E-02
666.16	6.5675E-02
666.34	6.6280E-02
666.53	6.4668E-02
666.72	6.6200E-02
666.91	6.5245E-02
667.09	6.5235E-02
667.28	6.5852E-02
667.47	6.5660E-02
667.66	6.4975E-02
667.85	6.4870E-02
668.03	6.1474E-02
668.22	6.5694E-02
668.41	6.4973E-02
668.60	6.2754E-02
668.78	6.5498E-02
668.97	6.4385E-02
669.16	6.3298E-02
669.35	6.4903E-02
669.54	6.3075E-02
669.72	6.5001E-02
669.91	6.4094E-02
670.10	6.4607E-02
670.29	6.4428E-02
670.47	6.5071E-02
670.66	6.5363E-02
670.85	6.4296E-02
671.04	6.3167E-02
671.22	6.3110E-02
671.41	6.4064E-02
671.60	6.4122E-02
671.79	6.4188E-02
671.97	6.3383E-02
672.16	6.5194E-02
672.35	6.4514E-02
672.54	6.4500E-02
672.72	6.3426E-02
672.91	6.2504E-02
673.10	6.3313E-02
673.28	6.2860E-02
673.47	6.2987E-02
673.66	6.2925E-02
673.85	6.4367E-02
674.03	6.3509E-02
674.22	6.3304E-02
674.41	6.2389E-02
674.60	6.2485E-02
674.78	6.0906E-02
674.97	6.1647E-02
675.16	6.4730E-02
675.34	6.3560E-02
675.53	6.2641E-02
675.72	6.1893E-02
675.91	6.4525E-02
676.09	6.3144E-02
676.28	6.3919E-02
676.47	6.3391E-02
676.65	6.1764E-02
676.84	6.3142E-02
677.03	6.4060E-02
677.22	6.2663E-02
677.40	6.3748E-02
677.59	6.3292E-02
677.78	6.2860E-02
677.96	6.3283E-02
678.15	6.4202E-02
678.34	6.5292E-02
678.52	6.2814E-02
678.71	6.3298E-02
678.90	6.3393E-02
679.08	6.3983E-02
679.27	6.2604E-02
679.46	6.4904E-02
679.64	6.3811E-02
679.83	6.3289E-02
680.02	6.3485E-02
680.21	6.1341E-02
680.39	6.4437E-02
680.58	6.3559E-02
680.77	6.3227E-02
680.95	6.3501E-02
681.14	6.1744E-02
681.33	6.3529E-02
681.51	6.4570E-02
681.70	6.4080E-02
681.89	6.4698E-02
682.07	6.3655E-02
682.26	6.1739E-02
682.44	6.4207E-02
682.63	6.3992E-02
682.82	6.4682E-02
683.00	6.1483E-02
683.19	6.3591E-02
683.38	6.4064E-02
683.56	6.4341E-02
683.75	6.3515E-02
683.94	6.1851E-02
684.12	6.1736E-02
684.31	6.3408E-02
684.50	6.3569E-02
684.68	6.1847E-02
684.87	6.1543E-02
685.05	6.1899E-02
685.24	6.0025E-02
685.43	6.0858E-02
685.61	6.0647E-02
685.80	5.9238E-02
685.99	6.0638E-02
686.17	5.8821E-02
686.36	6.0964E-02
686.54	6.0796E-02
686.73	6.0088E-02
686.92	6.0339E-02
687.10	5.9647E-02
687.29	6.1207E-02
687.48	5.9921E-02
687.66	6.2529E-02
687.85	6.0858E-02
688.03	6.1842E-02
688.22	6.0768E-02
688.41	6.3065E-02
688.59	6.1391E-02
688.78	6.3911E-02
688.96	6.4887E-02
689.15	6.6380E-02
689.34	6.3132E-02
689.52	6.7986E-02
689.71	6.6901E-02
689.89	6.8131E-02
690.08	7.0055E-02
690.27	6.9056E-02
690.45	6.9156E-02
690.64	6.9547E-02
690.82	6.9049E-02
691.01	7.1151E-02
691.19	7.0975E-02
691.38	7.2316E-02
691.57	7.3732E-02
691.75	7.2613E-02
691.94	7.4980E-02
692.12	7.4164E-02
692.31	7.6251E-02
692.50	7.5636E-02
692.68	7.7232E-02
692.87	7.8896E-02
693.05	7.8589E-02
693.24	7.7613E-02
693.42	7.9038E-02
693.61	8.0661E-02
693.79	8.2425E-02
693.98	8.1488E-02
694.17	8.3514E-02
694.35	8.5617E-02
694.54	8.6520E-02
694.72	8.6605E-02
694.91	8.7529E-02
695.09	8.8641E-02
695.28	8.9535E-02
695.46	9.0856E-02
695.65	9.1938E-02
695.83	9.3110E-02
696.02	9.5092E-02
696.21	9.6317E-02
696.39	9.5997E-02
696.58	9.7926E-02
696.76	9.5759E-02
696.95	9.8413E-02
697.13	9.9665E-02
697.32	1.0097E-01
697.50	1.0169E-01
697.69	1.0281E-01
697.87	1.0426E-01
698.06	1.0498E-01
698.24	1.0420E-01
698.43	1.0560E-01
698.61	1.0859E-01
698.80	1.0821E-01
698.98	1.1019E-01
699.17	1.0784E-01
699.35	1.1122E-01
699.54	1.1142E-01
699.72	1.1067E-01
699.91	1.1448E-01
700.09	1.1514E-01
700.28	1.1645E-01
700.46	1.1729E-01
700.65	1.1757E-01
700.83	1.1936E-01
701.02	1.2108E-01
701.20	1.1905E-01
701.39	1.2417E-01
701.57	1.2410E-01
701.76	1.2393E-01
701.94	1.2633E-01
702.13	1.2812E-01
702.31	1.2654E-01
702.50	1.3325E-01
702.68	1.3293E-01
702.87	1.3487E-01
703.05	1.3600E-01
703.24	1.3622E-01
703.42	1.3407E-01
703.61	1.3978E-01
703.79	1.4175E-01
703.98	1.4043E-01
704.16	1.4274E-01
704.35	1.4342E-01
704.53	1.4569E-01
704.72	1.4712E-01
704.90	1.4874E-01
705.08	1.4812E-01
705.27	1.5214E-01
705.45	1.5280E-01
705.64	1.5475E-01
705.82	1.5520E-01
706.01	1.5633E-01
706.19	1.5653E-01
706.38	1.5858E-01
706.56	1.6185E-01
706.75	1.6241E-01
706.93	1.6326E-01
707.11	1.6265E-01
707.30	1.6630E-01
707.48	1.6689E-01
707.67	1.6662E-01
707.85	1.6851E-01
708.04	1.7050E-01
708.22	1.7128E-01
708.40	1.7127E-01
708.59	1.7182E-01
708.77	1.7569E-01
708.96	1.7588E-01
709.14	1.7772E-01
709.33	1.7800E-01
709.51	1.8026E-01
709.69	1.8148E-01
709.88	1.8323E-01
710.06	1.8411E-01
710.25	1.8375E-01
710.43	1.8620E-01
710.62	1.8851E-01
710.80	1.8825E-01
710.98	1.9010E-01
711.17	1.9072E-01
711.35	1.9280E-01
711.54	1.9426E-01
711.72	1.9383E-01
711.90	1.9646E-01
712.09	1.9751E-01
712.27	1.9630E-01
712.46	1.9846E-01
712.64	1.9809E-01
712.82	2.0131E-01
713.01	2.0203E-01
713.19	2.0249E-01
713.37	2.0169E-01
713.56	2.0157E-01
713.74	2.0310E-01
713.93	2.0174E-01
714.11	2.0089E-01
714.29	1.9899E-01
714.48	2.0119E-01
714.66	2.0052E-01
714.85	1.9835E-01
715.03	1.9776E-01
715.21	1.9618E-01
715.40	1.9401E-01
715.58	1.9318E-01
715.76	1.9092E-01
715.95	1.9055E-01
716.13	1.9135E-01
716.31	1.8932E-01
716.50	1.8749E-01
716.68	1.8559E-01
716.87	1.8619E-01
717.05	1.8555E-01
717.23	1.8323E-01
717.42	1.8429E-01
717.60	1.8337E-01
717.78	1.8437E-01
717.97	1.8472E-01
718.15	1.8470E-01
718.33	1.8506E-01
718.52	1.8763E-01
718.70	1.8967E-01
718.88	1.8975E-01
719.07	1.9494E-01
719.25	1.9448E-01
719.43	1.9715E-01
719.62	1.9840E-01
719.80	2.0035E-01
719.98	2.0447E-01
720.17	2.0520E-01
720.35	2.0686E-01
720.53	2.1012E-01
720.72	2.1225E-01
720.90	2.1263E-01
721.08	2.1339E-01
721.27	2.1562E-01
721.45	2.1710E-01
721.63	2.1797E-01
721.82	2.2016E-01
722.00	2.1996E-01
722.18	2.2075E-01
722.36	2.2326E-01
722.55	2.2334E-01
722.73	2.2407E-01
722.91	2.2448E-01
723.10	2.2605E-01
723.28	2.2560E-01
723.46	2.2322E-01
723.65	2.2602E-01
723.83	2.2676E-01
724.01	2.2721E-01
724.19	2.2959E-01
724.38	2.3056E-01
724.56	2.3213E-01
724.74	2.3379E-01
724.93	2.3176E-01
725.11	2.3328E-01
725.29	2.3629E-01
725.47	2.3705E-01
725.66	2.3793E-01
725.84	2.3854E-01
726.02	2.4009E-01
726.21	2.4260E-01
726.39	2.4198E-01
726.57	2.4338E-01
726.75	2.4374E-01
726.94	2.4699E-01
727.12	2.4649E-01
727.30	2.4782E-01
727.48	2.4839E-01
727.67	2.5156E-01
727.85	2.5169E-01
728.03	2.5405E-01
728.21	2.5662E-01
728.40	2.5651E-01
728.58	2.6042E-01
728.76	2.6092E-01
728.94	2.6365E-01
729.13	2.6640E-01
729.31	2.6626E-01
729.49	2.7005E-01
729.67	2.7227E-01
729.86	2.7520E-01
730.04	2.7585E-01
730.22	2.8082E-01
730.40	2.8291E-01
730.59	2.8582E-01
730.77	2.8894E-01
730.95	2.9307E-01
731.13	2.9484E-01
731.31	2.9829E-01
731.50	2.9913E-01
731.68	3.0531E-01
731.86	3.0646E-01
732.04	3.0997E-01
732.23	3.1345E-01
732.41	3.1487E-01
732.59	3.1785E-01
732.77	3.2062E-01
732.95	3.2299E-01
733.14	3.2459E-01
733.32	3.2843E-01
733.50	3.2936E-01
733.68	3.3085E-01
733.86	3.3255E-01
734.05	3.3524E-01
734.23	3.3738E-01
734.41	3.3624E-01
734.59	3.3926E-01
734.77	3.4140E-01
734.96	3.4058E-01
735.14	3.4455E-01
735.32	3.4503E-01
735.50	3.4572E-01
735.68	3.4887E-01
735.87	3.4865E-01
736.05	3.5263E-01
736.23	3.5016E-01
736.41	3.5470E-01
736.59	3.5497E-01
736.77	3.5533E-01
736.96	3.5609E-01
737.14	3.5610E-01
737.32	3.5990E-01
737.50	3.6188E-01
737.68	3.6239E-01
737.87	3.6423E-01
738.05	3.6675E-01
738.23	3.6465E-01
738.41	3.6679E-01
738.59	3.6853E-01
738.77	3.7016E-01
738.95	3.7304E-01
739.14	3.7194E-01
739.32	3.7365E-01
739.50	3.7727E-01
739.68	3.7599E-01
739.86	3.7786E-01
740.04	3.7888E-01
740.23	3.7829E-01
740.41	3.8216E-01
740.59	3.8382E-01
740.77	3.8602E-01
740.95	3.8576E-01
741.13	3.8645E-01
741.31	3.8680E-01
741.50	3.8819E-01
741.68	3.8884E-01
741.86	3.8964E-01
742.04	3.9261E-01
742.22	3.9440E-01
742.40	3.9447E-01
742.58	3.9604E-01
742.76	3.9706E-01
742.95	3.9515E-01
743.13	3.9949E-01
743.31	3.9985E-01
743.49	3.9992E-01
743.67	4.0262E-01
743.85	4.0257E-01
744.03	4.0217E-01
744.21	4.0349E-01
744.39	4.0278E-01
744.58	4.0560E-01
744.76	4.0664E-01
744.94	4.0830E-01
745.12	4.0781E-01
745.30	4.0728E-01
745.48	4.0928E-01
745.66	4.1039E-01
745.84	4.0847E-01
746.02	4.0892E-01
746.20	4.1084E-01
746.38	4.1205E-01
746.57	4.1405E-01
746.75	4.1014E-01
746.93	4.1308E-01
747.11	4.1089E-01
747.29	4.1258E-01
747.47	4.1396E-01
747.65	4.1346E-01
747.83	4.1068E-01
748.01	4.1303E-01
748.19	4.1318E-01
748.37	4.1316E-01
748.55	4.1271E-01
748.73	4.1197E-01
748.92	4.1345E-01
749.10	4.1268E-01
749.28	4.1495E-01
749.46	4.1374E-01
749.64	4.1298E-01
749.82	4.1406E-01
750.00	4.1549E-01
750.18	4.1528E-01
750.36	4.1386E-01
750.54	4.1635E-01
750.72	4.1819E-01
750.90	4.1873E-01
751.08	4.1829E-01
751.26	4.2042E-01
751.44	4.2100E-01
751.62	4.2318E-01
751.80	4.2194E-01
751.98	4.2396E-01
752.16	4.2522E-01
752.34	4.2679E-01
752.52	4.2807E-01
752.71	4.2611E-01
752.89	4.2618E-01
753.07	4.3048E-01
753.25	4.2805E-01
753.43	4.3274E-01
753.61	4.3129E-01
753.79	4.3533E-01
753.97	4.3570E-01
754.15	4.3713E-01
754.33	4.3910E-01
754.51	4.4027E-01
754.69	4.4140E-01
754.87	4.4118E-01
755.05	4.4177E-01
755.23	4.4369E-01
755.41	4.4401E-01
755.59	4.3608E-01
755.77	4.3943E-01
755.95	4.3741E-01
756.13	4.3198E-01
756.31	4.3165E-01
756.49	4.2729E-01
756.67	4.2095E-01
756.85	4.1459E-01
757.03	4.0746E-01
757.21	4.0082E-01
757.39	3.9378E-01
757.57	3.8625E-01
757.75	3.7509E-01
757.93	3.6419E-01
758.11	3.5676E-01
758.29	3.4796E-01
758.47	3.3796E-01
758.65	3.3024E-01
758.83	3.2482E-01
759.01	3.1509E-01
759.18	3.0633E-01
759.36	2.9473E-01
759.54	2.9088E-01
759.72	2.8191E-01
759.90	2.7804E-01
760.08	2.7327E-01
760.26	2.6950E-01
760.44	2.6324E-01
760.62	2.5875E-01
760.80	2.5671E-01
760.98	2.5978E-01
761.16	2.5926E-01
761.34	2.5737E-01
761.52	2.6093E-01
761.70	2.5858E-01
761.88	2.6041E-01
762.06	2.6227E-01
762.24	2.6389E-01
762.42	2.6668E-01
762.60	2.6952E-01
762.78	2.7360E-01
762.95	2.7658E-01
763.13	2.8308E-01
763.31	2.8854E-01
763.49	2.9244E-01
763.67	2.9917E-01
763.85	3.0297E-01
764.03	3.1327E-01
764.21	3.1788E-01
764.39	3.2670E-01
764.57	3.3614E-01
764.75	3.4164E-01
764.93	3.5298E-01
765.11	3.5705E-01
765.28	3.6725E-01
765.46	3.7356E-01
765.64	3.7997E-01
765.82	3.8811E-01
766.00	3.9570E-01
766.18	4.0233E-01
766.36	4.0823E-01
766.54	4.1366E-01
766.72	4.2034E-01
766.90	4.2884E-01
767.07	4.2975E-01
767.25	4.3660E-01
767.43	4.4193E-01
767.61	4.4794E-01
767.79	4.5217E-01
767.97	4.5522E-01
768.15	4.5777E-01
768.33	4.5990E-01
768.51	4.6580E-01
768.68	4.6816E-01
768.86	4.6887E-01
769.04	4.7137E-01
769.22	4.7704E-01
769.40	4.7821E-01
769.58	4.7776E-01
769.76	4.8276E-01
769.94	4.8353E-01
770.11	4.8219E-01
770.29	4.8471E-01
770.47	4.8489E-01
770.65	4.8581E-01
770.83	4.8589E-01
771.01	4.8786E-01
771.19	4.8762E-01
771.36	4.8524E-01
771.54	4.8779E-01
771.72	4.8615E-01
771.90	4.8444E-01
772.08	4.8666E-01
772.26	4.8811E-01
772.44	4.8370E-01
772.61	4.8587E-01
772.79	4.8327E-01
772.97	4.8628E-01
773.15	4.8739E-01
773.33	4.8336E-01
773.51	4.8587E-01
773.68	4.8279E-01
773.86	4.8129E-01
774.04	4.8210E-01
774.22	4.7971E-01
774.40	4.8051E-01
774.58	4.8137E-01
774.75	4.8015E-01
774.93	4.7685E-01
775.11	4.8031E-01
775.29	4.7725E-01
775.47	4.7479E-01
775.64	4.7766E-01
775.82	4.7551E-01
776.00	4.7567E-01
776.18	4.7286E-01
776.36	4.7213E-01
776.53	4.7485E-01
776.71	4.6988E-01
776.89	4.6872E-01
777.07	4.6981E-01
777.25	4.6778E-01
777.42	4.6679E-01
777.60	4.6438E-01
777.78	4.6584E-01
777.96	4.6376E-01
778.14	4.6535E-01
778.31	4.6265E-01
778.49	4.5886E-01
778.67	4.5890E-01
778.85	4.5968E-01
779.03	4.6067E-01
779.20	4.5950E-01
779.38	4.5765E-01
779.56	4.5458E-01
779.74	4.5687E-01
779.91	4.5437E-01
780.09	4.5286E-01
780.27	4.5035E-01
780.45	4.5125E-01
780.62	4.5175E-01
780.80	4.5160E-01
780.98	4.4749E-01
781.16	4.4524E-01
781.34	4.4821E-01
781.51	4.4805E-01
781.69	4.4785E-01
781.87	4.4596E-01
782.05	4.4448E-01
782.22	4.4416E-01
782.40	4.4221E-01
782.58	4.4244E-01
782.76	4.3922E-01
782.93	4.4155E-01
783.11	4.4206E-01
783.29	4.3751E-01
783.47	4.3679E-01
783.64	4.3691E-01
783.82	4.3446E-01
784.00	4.3068E-01
784.17	4.3214E-01
784.35	4.3197E-01
784.53	4.2975E-01
784.71	4.3051E-01
784.88	4.2774E-01
785.06	4.2998E-01
785.24	4.2610E-01
785.42	4.2671E-01
785.59	4.2455E-01
785.77	4.1966E-01
785.95	4.2046E-01
786.12	4.1696E-01
786.30	4.1802E-01
786.48	4.1597E-01
786.65	4.1344E-01
786.83	4.1368E-01
787.01	4.1354E-01
787.19	4.1129E-01
787.36	4.1077E-01
787.54	4.0856E-01
787.72	4.0872E-01
787.89	4.0692E-01
788.07	4.0529E-01
788.25	4.0355E-01
788.42	4.0187E-01
788.60	4.0343E-01
788.78	3.9982E-01
788.96	3.9905E-01
789.13	3.9599E-01
789.31	3.9511E-01
789.49	3.9353E-01
789.66	3.9401E-01
789.84	3.9038E-01
790.02	3.8658E-01
790.19	3.8881E-01
790.37	3.8943E-01
790.55	3.8730E-01
790.72	3.8626E-01
790.90	3.8843E-01
791.08	3.8395E-01
791.25	3.8380E-01
791.43	3.8337E-01
791.61	3.8157E-01
791.78	3.8017E-01
791.96	3.7667E-01
792.14	3.7863E-01
792.31	3.7920E-01
792.49	3.7355E-01
792.67	3.7833E-01
792.84	3.7372E-01
793.02	3.7347E-01
793.19	3.7195E-01
793.37	3.7505E-01
793.55	3.7479E-01
793.72	3.7329E-01
793.90	3.6895E-01
794.08	3.7077E-01
794.25	3.7043E-01
794.43	3.6812E-01
794.61	3.6932E-01
794.78	3.6879E-01
794.96	3.6521E-01
795.13	3.6748E-01
795.31	3.6760E-01
795.49	3.6395E-01
795.66	3.6595E-01
795.84	3.6445E-01
796.01	3.6500E-01
796.19	3.6362E-01
796.37	3.6581E-01
796.54	3.6481E-01
796.72	3.6533E-01
796.90	3.6348E-01
797.07	3.6035E-01
797.25	3.6233E-01
797.42	3.6311E-01
797.60	3.6198E-01
797.78	3.5940E-01
797.95	3.5696E-01
798.13	3.5493E-01
798.30	3.5800E-01
798.48	3.5622E-01
798.66	3.5815E-01
798.83	3.5284E-01
799.01	3.5488E-01
799.18	3.5244E-01
799.36	3.5501E-01
799.53	3.4793E-01
799.71	3.5244E-01
799.89	3.4873E-01
800.06	3.4838E-01
800.24	3.4756E-01
800.41	3.4374E-01
800.59	3.4823E-01
800.76	3.4371E-01
800.94	3.4269E-01
801.12	3.4510E-01
801.29	3.4419E-01
801.47	3.4515E-01
801.64	3.4124E-01
801.82	3.4397E-01
801.99	3.4277E-01
802.17	3.4238E-01
802.34	3.4088E-01
802.52	3.4056E-01
802.70	3.4113E-01
802.87	3.3813E-01
803.05	3.3658E-01
803.22	3.4176E-01
803.40	3.3808E-01
803.57	3.3812E-01
803.75	3.4111E-01
803.92	3.3904E-01
804.10	3.3547E-01
804.27	3.3588E-01
804.45	3.3773E-01
804.63	3.3678E-01
804.80	3.3515E-01
804.98	3.3729E-01
805.15	3.3263E-01
805.33	3.3838E-01
805.50	3.3857E-01
805.68	3.3715E-01
805.85	3.3798E-01
806.03	3.3504E-01
806.20	3.3521E-01
806.38	3.2897E-01
806.55	3.2946E-01
806.73	3.3476E-01
806.90	3.3079E-01
807.08	3.2938E-01
807.25	3.2563E-01
807.43	3.2886E-01
807.60	3.2900E-01
807.78	3.2459E-01
807.95	3.2073E-01
808.13	3.2158E-01
808.30	3.1979E-01
808.48	3.2321E-01
808.65	3.2028E-01
808.83	3.2340E-01
809.00	3.1864E-01
809.18	3.2113E-01
809.35	3.1411E-01
809.53	3.1737E-01
809.70	3.1425E-01
809.88	3.1322E-01
810.05	3.1086E-01
810.23	3.1142E-01
810.40	3.0867E-01
810.57	3.0734E-01
810.75	3.0253E-01
810.92	3.0102E-01
811.10	2.9949E-01
811.27	2.9508E-01
811.45	2.9467E-01
811.62	2.9142E-01
811.80	2.8752E-01
811.97	2.8783E-01
812.15	2.8578E-01
812.32	2.8395E-01
812.50	2.7660E-01
812.67	2.8277E-01
812.84	2.7341E-01
813.02	2.7416E-01
813.19	2.7126E-01
813.37	2.6937E-01
813.54	2.6407E-01
813.72	2.6355E-01
813.89	2.5823E-01
814.07	2.5864E-01
814.24	2.5713E-01
814.41	2.5612E-01
814.59	2.4951E-01
814.76	2.4694E-01
814.94	2.4793E-01
815.11	2.4762E-01
815.29	2.3809E-01
815.46	2.3856E-01
815.63	2.3973E-01
815.81	2.3891E-01
815.98	2.3180E-01
816.16	2.3134E-01
816.33	2.3618E-01
816.50	2.3704E-01
816.68	2.3420E-01
816.85	2.3168E-01
817.03	2.3393E-01
817.20	2.3248E-01
817.37	2.3448E-01
817.55	2.3197E-01
817.72	2.3380E-01
817.90	2.3027E-01
818.07	2.3399E-01
818.24	2.3027E-01
818.42	2.3243E-01
818.59	2.3283E-01
818.77	2.3336E-01
818.94	2.3742E-01
819.11	2.3237E-01
819.29	2.3792E-01
819.46	2.3753E-01
819.64	2.3238E-01
819.81	2.4045E-01
819.98	2.3879E-01
820.16	2.3456E-01
820.33	2.3773E-01
820.50	2.3698E-01
820.68	2.3340E-01
820.85	2.3580E-01
821.02	2.3443E-01
821.20	2.3121E-01
821.37	2.3416E-01
821.55	2.2833E-01
821.72	2.3164E-01
821.89	2.3178E-01
822.07	2.3515E-01
822.24	2.3434E-01
822.41	2.2800E-01
822.59	2.3675E-01
822.76	2.3712E-01
822.93	2.3172E-01
823.11	2.3343E-01
823.28	2.3571E-01
823.45	2.3358E-01
823.63	2.3472E-01
823.80	2.3829E-01
823.97	2.3075E-01
824.15	2.3984E-01
824.32	2.3688E-01
824.49	2.4364E-01
824.67	2.3799E-01
824.84	2.4049E-01
825.01	2.4059E-01
825.19	2.4065E-01
825.36	2.4063E-01
825.53	2.4366E-01
825.71	2.4185E-01
825.88	2.4267E-01
826.05	2.3755E-01
826.23	2.4192E-01
826.40	2.3877E-01
826.57	2.3947E-01
826.75	2.3732E-01
826.92	2.3429E-01
827.09	2.3397E-01
827.26	2.4134E-01
827.44	2.3715E-01
827.61	2.4052E-01
827.78	2.3730E-01
827.96	2.3117E-01
828.13	2.3948E-01
828.30	2.3622E-01
828.48	2.3460E-01
828.65	2.3372E-01
828.82	2.3426E-01
828.99	2.3394E-01
829.17	2.3483E-01
829.34	2.2777E-01
829.51	2.3338E-01
829.68	2.3736E-01
829.86	2.3500E-01
830.03	2.3248E-01
830.20	2.3379E-01
830.38	2.3271E-01
830.55	2.2955E-01
830.72	2.3394E-01
830.89	2.2909E-01
831.07	2.2922E-01
831.24	2.2909E-01
831.41	2.3062E-01
831.58	2.3392E-01
831.76	2.3743E-01
831.93	2.3474E-01
832.10	2.3460E-01
832.27	2.2878E-01
832.45	2.2916E-01
832.62	2.3463E-01
832.79	2.3149E-01
832.96	2.3530E-01
833.14	2.2930E-01
833.31	2.3793E-01
833.48	2.3505E-01
833.65	2.3218E-01
833.83	2.3891E-01
834.00	2.4012E-01
834.17	2.3562E-01
834.34	2.3824E-01
834.51	2.3577E-01
834.69	2.3403E-01
834.86	2.4030E-01
835.03	2.3701E-01
835.20	2.4157E-01
835.38	2.3859E-01
835.55	2.4031E-01
835.72	2.3877E-01
835.89	2.4737E-01
836.06	2.3922E-01
836.24	2.3929E-01
836.41	2.3703E-01
836.58	2.4403E-01
836.75	2.4355E-01
836.92	2.4176E-01
837.10	2.3789E-01
837.27	2.4043E-01
837.44	2.3831E-01
837.61	2.4492E-01
837.78	2.3919E-01
837.96	2.4268E-01
838.13	2.4045E-01
838.30	2.4401E-01
838.47	2.4209E-01
838.64	2.4058E-01
838.82	2.3930E-01
838.99	2.4533E-01
839.16	2.3869E-01
839.33	2.3951E-01
839.50	2.4517E-01
839.67	2.4153E-01
839.85	2.3503E-01
840.02	2.4050E-01
840.19	2.3844E-01
840.36	2.4453E-01
840.53	2.3782E-01
840.70	2.3772E-01
840.88	2.4491E-01
841.05	2.4636E-01
841.22	2.4300E-01
841.39	2.4277E-01
841.56	2.4335E-01
841.73	2.4211E-01
841.91	2.4481E-01
842.08	2.4456E-01
842.25	2.4336E-01
842.42	2.4522E-01
842.59	2.4348E-01
842.76	2.4914E-01
842.93	2.4287E-01
843.11	2.4428E-01
843.28	2.4230E-01
843.45	2.4241E-01
843.62	2.3786E-01
843.79	2.3866E-01
843.96	2.4467E-01
844.13	2.4042E-01
844.30	2.3950E-01
844.48	2.4312E-01
844.65	2.3489E-01
844.82	2.3236E-01
844.99	2.3679E-01
845.16	2.3585E-01
845.33	2.3705E-01
845.50	2.3705E-01
845.67	2.3202E-01
845.84	2.3627E-01
846.02	2.3323E-01
846.19	2.3589E-01
846.36	2.3522E-01
846.53	2.4078E-01
846.70	2.3559E-01
846.87	2.2884E-01
847.04	2.3543E-01
847.21	2.3502E-01
847.38	2.3450E-01
847.55	2.3438E-01
847.73	2.2980E-01
847.90	2.3166E-01
848.07	2.2674E-01
848.24	2.2789E-01
848.41	2.2507E-01
848.58	2.3696E-01
848.75	2.2691E-01
848.92	2.3331E-01
849.09	2.2689E-01
849.26	2.2442E-01
849.43	2.2171E-01
849.60	2.2385E-01
849.77	2.2685E-01
849.94	2.1123E-01
850.12	2.2615E-01
850.29	2.2255E-01
850.46	2.2033E-01
850.63	2.1842E-01
850.80	2.2127E-01
850.97	2.1994E-01
851.14	2.1361E-01
851.31	2.0901E-01
851.48	2.1378E-01
851.65	2.1503E-01
851.82	2.1927E-01
851.99	2.1696E-01
852.16	2.0609E-01
852.33	2.1306E-01
852.50	2.0933E-01
852.67	2.0995E-01
852.84	2.1090E-01
853.01	2.0718E-01
853.18	2.1023E-01
853.35	2.0375E-01
853.52	2.1342E-01
853.69	2.0610E-01
853.86	2.0092E-01
854.03	1.9944E-01
854.21	2.0631E-01
854.38	2.0351E-01
854.55	2.0647E-01
854.72	2.0708E-01
854.89	1.9861E-01
855.06	1.9348E-01
855.23	2.0164E-01
855.40	2.0681E-01
855.57	1.9739E-01
855.74	2.0009E-01
855.91	2.0203E-01
856.08	1.9730E-01
856.25	2.0198E-01
856.42	2.0021E-01
856.59	1.9974E-01
856.76	2.0171E-01
856.93	2.0127E-01
857.10	2.0084E-01
857.27	2.0748E-01
857.44	2.0290E-01
857.61	2.0270E-01
857.77	1.9725E-01
857.94	1.9774E-01
858.11	1.9697E-01
858.28	2.0627E-01
858.45	1.9706E-01
858.62	2.0188E-01
858.79	1.9865E-01
858.96	1.9891E-01
859.13	1.9911E-01
859.30	2.0280E-01
859.47	1.9748E-01
859.64	1.9187E-01
859.81	2.0283E-01
859.98	2.0360E-01
860.15	1.9973E-01
860.32	1.9682E-01
860.49	2.0906E-01
860.66	2.0047E-01
860.83	2.0204E-01
861.00	2.0014E-01
861.17	2.0072E-01
861.34	2.0141E-01
861.51	1.9087E-01
861.68	2.0189E-01
861.84	1.9908E-01
862.01	1.9441E-01
862.18	1.9642E-01
862.35	1.9930E-01
862.52	1.9923E-01
862.69	1.9625E-01
862.86	1.9838E-01
863.03	2.0008E-01
863.20	1.9715E-01
863.37	1.9772E-01
863.54	1.9087E-01
863.71	1.9032E-01
863.88	1.9243E-01
864.05	1.9100E-01
864.21	1.9453E-01
864.38	1.8602E-01
864.55	1.8359E-01
864.72	1.9423E-01
864.89	1.8759E-01
865.06	1.9160E-01
865.23	1.8447E-01
865.40	1.7987E-01
865.57	1.8895E-01
865.74	1.8372E-01
865.90	1.8434E-01
866.07	1.8260E-01
866.24	1.7434E-01
866.41	1.7217E-01
866.58	1.7411E-01
866.75	1.7476E-01
866.92	1.7452E-01
867.09	1.7434E-01
867.26	1.7461E-01
867.42	1.6924E-01
867.59	1.6580E-01
867.76	1.7527E-01
867.93	1.7082E-01
868.10	1.7298E-01
868.27	1.6305E-01
868.44	1.7275E-01
868.60	1.7436E-01
868.77	1.7266E-01
868.94	1.6973E-01
869.11	1.6910E-01
869.28	1.7454E-01
869.45	1.6325E-01
869.62	1.7276E-01
869.78	1.6916E-01
869.95	1.6444E-01
870.12	1.6745E-01
870.29	1.7103E-01
870.46	1.7234E-01
870.63	1.6666E-01
870.80	1.6197E-01
870.96	1.6631E-01
871.13	1.6486E-01
871.30	1.7052E-01
871.47	1.7028E-01
871.64	1.6945E-01
871.81	1.5612E-01
871.97	1.7241E-01
872.14	1.5974E-01
872.31	1.5778E-01
872.48	1.6239E-01
872.65	1.6837E-01
872.81	1.6249E-01
872.98	1.6933E-01
873.15	1.6595E-01
873.32	1.6596E-01
873.49	1.6082E-01
873.66	1.6474E-01
873.82	1.6071E-01
873.99	1.5746E-01
874.16	1.6214E-01
874.33	1.5782E-01
874.50	1.6242E-01
874.66	1.5794E-01
874.83	1.5888E-01
875.00	1.5784E-01
875.17	1.4857E-01
875.34	1.6040E-01
875.50	1.5441E-01
875.67	1.5276E-01
875.84	1.5438E-01
876.01	1.5161E-01
876.17	1.4865E-01
876.34	1.4784E-01
876.51	1.5892E-01
876.68	1.5620E-01
876.85	1.5358E-01
877.01	1.5613E-01
877.18	1.4873E-01
877.35	1.5070E-01
877.52	1.4946E-01
877.68	1.5309E-01
877.85	1.4805E-01
878.02	1.4995E-01
878.19	1.4714E-01
878.35	1.4847E-01
878.52	1.4736E-01
878.69	1.4901E-01
878.86	1.4204E-01
879.02	1.4546E-01
879.19	1.3968E-01
879.36	1.4258E-01
879.53	1.3498E-01
879.69	1.4123E-01
879.86	1.4877E-01
880.03	1.4721E-01
880.20	1.4021E-01
880.36	1.4773E-01
880.53	1.3809E-01
880.70	1.4822E-01
880.87	1.4146E-01
881.03	1.4118E-01
881.20	1.3290E-01
881.37	1.3942E-01
881.54	1.4153E-01
881.70	1.4545E-01
881.87	1.3780E-01
882.04	1.3792E-01
882.20	1.3775E-01
882.37	1.3221E-01
882.54	1.4019E-01
882.71	1.3925E-01
882.87	1.4442E-01
883.04	1.3686E-01
883.21	1.3686E-01
883.37	1.3434E-01
883.54	1.3698E-01
883.71	1.3458E-01
883.87	1.3110E-01
884.04	1.4166E-01
884.21	1.3435E-01
884.38	1.3108E-01
884.54	1.4208E-01
884.71	1.4174E-01
884.88	1.3319E-01
885.04	1.3579E-01
885.21	1.3149E-01
885.38	1.3088E-01
885.54	1.4231E-01
885.71	1.3124E-01
885.88	1.3426E-01
886.04	1.3256E-01
886.21	1.3285E-01
886.38	1.2946E-01
886.54	1.3033E-01
886.71	1.2606E-01
886.88	1.3564E-01
887.04	1.2245E-01
887.21	1.2671E-01
887.38	1.3238E-01
887.54	1.2434E-01
887.71	1.3156E-01
887.88	1.2864E-01
888.04	1.3895E-01
888.21	1.2909E-01
888.38	1.2814E-01
888.54	1.2296E-01
888.71	1.2858E-01
888.87	1.1187E-01
889.04	1.1187E-01
>>>>>End Processed Spectral Data<<<<<
