SpectraSuite Data File
++++++++++++++++++++++++++++++++++++
Date: Wed Jul 25 11:28:25 HST 2007
User: guest
Dark Spectrum Present: Yes
Reference Spectrum Present: No
Number of Sampled Component Spectra: 1
Spectrometers: USB4E01242
Integration Time (usec): 20000 (USB4E01242)
Spectra Averaged: 1 (USB4E01242)
Boxcar Smoothing: 10 (USB4E01242)
Correct for Electrical Dark: No (USB4E01242)
Strobe/Lamp Enabled: No (USB4E01242)
Correct for Detector Non-linearity: No (USB4E01242)
Correct for Stray Light: No (USB4E01242)
Number of Pixels in Processed Spectrum: 3648
>>>>>Begin Processed Spectral Data<<<<<
177.33	0.0000E00
177.55	0.0000E00
177.77	0.0000E00
177.99	0.0000E00
178.21	0.0000E00
178.43	0.0000E00
178.64	-0.0000E00
178.86	-0.0000E00
179.08	-0.0000E00
179.30	-0.0000E00
179.52	0.0000E00
179.74	0.0000E00
179.96	-0.0000E00
180.18	-0.0000E00
180.39	-0.0000E00
180.61	-0.0000E00
180.83	-0.0000E00
181.05	-0.0000E00
181.27	0.0000E00
181.49	-0.0000E00
181.71	0.0000E00
181.92	-0.0000E00
182.14	0.0000E00
182.36	-0.0000E00
182.58	-0.0000E00
182.80	0.0000E00
183.02	0.0000E00
183.23	-0.0000E00
183.45	-0.0000E00
183.67	-0.0000E00
183.89	-0.0000E00
184.11	0.0000E00
184.33	-0.0000E00
184.55	-0.0000E00
184.76	0.0000E00
184.98	-0.0000E00
185.20	-0.0000E00
185.42	-0.0000E00
185.64	-0.0000E00
185.86	0.0000E00
186.07	-0.0000E00
186.29	-0.0000E00
186.51	-0.0000E00
186.73	0.0000E00
186.95	0.0000E00
187.17	0.0000E00
187.38	-0.0000E00
187.60	0.0000E00
187.82	-0.0000E00
188.04	-0.0000E00
188.26	-0.0000E00
188.47	-0.0000E00
188.69	-0.0000E00
188.91	0.0000E00
189.13	-0.0000E00
189.35	-0.0000E00
189.57	0.0000E00
189.78	0.0000E00
190.00	-0.0000E00
190.22	-0.0000E00
190.44	0.0000E00
190.66	-0.0000E00
190.87	0.0000E00
191.09	-0.0000E00
191.31	-0.0000E00
191.53	-0.0000E00
191.75	-0.0000E00
191.97	-0.0000E00
192.18	0.0000E00
192.40	0.0000E00
192.62	0.0000E00
192.84	0.0000E00
193.06	-0.0000E00
193.27	-0.0000E00
193.49	0.0000E00
193.71	0.0000E00
193.93	-0.0000E00
194.15	-0.0000E00
194.36	0.0000E00
194.58	0.0000E00
194.80	0.0000E00
195.02	-0.0000E00
195.23	-0.0000E00
195.45	-0.0000E00
195.67	-0.0000E00
195.89	0.0000E00
196.11	0.0000E00
196.32	-0.0000E00
196.54	-0.0000E00
196.76	-0.0000E00
196.98	0.0000E00
197.20	0.0000E00
197.41	-0.0000E00
197.63	0.0000E00
197.85	-0.0000E00
198.07	-0.0000E00
198.28	0.0000E00
198.50	-0.0000E00
198.72	-0.0000E00
198.94	0.0000E00
199.16	-0.0000E00
199.37	-0.0000E00
199.59	0.0000E00
199.81	-0.0000E00
200.03	0.0000E00
200.24	0.0000E00
200.46	-0.0000E00
200.68	-0.0000E00
200.90	-0.0000E00
201.11	-0.0000E00
201.33	-0.0000E00
201.55	-0.0000E00
201.77	0.0000E00
201.98	-0.0000E00
202.20	-0.0000E00
202.42	0.0000E00
202.64	-0.0000E00
202.86	-0.0000E00
203.07	-0.0000E00
203.29	-0.0000E00
203.51	-0.0000E00
203.73	0.0000E00
203.94	-0.0000E00
204.16	-0.0000E00
204.38	0.0000E00
204.60	-0.0000E00
204.81	0.0000E00
205.03	-0.0000E00
205.25	-0.0000E00
205.46	0.0000E00
205.68	-0.0000E00
205.90	-0.0000E00
206.12	-0.0000E00
206.33	-0.0000E00
206.55	0.0000E00
206.77	-0.0000E00
206.99	-0.0000E00
207.20	-0.0000E00
207.42	0.0000E00
207.64	-0.0000E00
207.86	-0.0000E00
208.07	0.0000E00
208.29	-0.0000E00
208.51	0.0000E00
208.72	0.0000E00
208.94	0.0000E00
209.16	0.0000E00
209.38	-0.0000E00
209.59	0.0000E00
209.81	-0.0000E00
210.03	-0.0000E00
210.25	-0.0000E00
210.46	-0.0000E00
210.68	-0.0000E00
210.90	-0.0000E00
211.11	0.0000E00
211.33	-0.0000E00
211.55	-0.0000E00
211.77	-0.0000E00
211.98	0.0000E00
212.20	-0.0000E00
212.42	-0.0000E00
212.63	-0.0000E00
212.85	0.0000E00
213.07	-0.0000E00
213.29	0.0000E00
213.50	-0.0000E00
213.72	-0.0000E00
213.94	-0.0000E00
214.15	-0.0000E00
214.37	-0.0000E00
214.59	-0.0000E00
214.80	-0.0000E00
215.02	0.0000E00
215.24	0.0000E00
215.45	-0.0000E00
215.67	0.0000E00
215.89	0.0000E00
216.11	-0.0000E00
216.32	-0.0000E00
216.54	-0.0000E00
216.76	-0.0000E00
216.97	0.0000E00
217.19	0.0000E00
217.41	0.0000E00
217.62	0.0000E00
217.84	0.0000E00
218.06	0.0000E00
218.27	0.0000E00
218.49	0.0000E00
218.71	0.0000E00
218.92	0.0000E00
219.14	-0.0000E00
219.36	-0.0000E00
219.57	-0.0000E00
219.79	0.0000E00
220.01	-0.0000E00
220.22	0.0000E00
220.44	-0.0000E00
220.66	-0.0000E00
220.88	0.0000E00
221.09	0.0000E00
221.31	-0.0000E00
221.53	-0.0000E00
221.74	0.0000E00
221.96	-0.0000E00
222.17	0.0000E00
222.39	-0.0000E00
222.61	-0.0000E00
222.82	0.0000E00
223.04	0.0000E00
223.26	0.0000E00
223.47	-0.0000E00
223.69	-0.0000E00
223.91	-0.0000E00
224.12	0.0000E00
224.34	-0.0000E00
224.56	-0.0000E00
224.77	-0.0000E00
224.99	-0.0000E00
225.21	0.0000E00
225.42	0.0000E00
225.64	0.0000E00
225.86	-0.0000E00
226.07	0.0000E00
226.29	-0.0000E00
226.50	0.0000E00
226.72	-0.0000E00
226.94	-0.0000E00
227.15	-0.0000E00
227.37	0.0000E00
227.59	-0.0000E00
227.80	-0.0000E00
228.02	-0.0000E00
228.24	-0.0000E00
228.45	0.0000E00
228.67	-0.0000E00
228.88	0.0000E00
229.10	-0.0000E00
229.32	-0.0000E00
229.53	0.0000E00
229.75	-0.0000E00
229.97	0.0000E00
230.18	0.0000E00
230.40	-0.0000E00
230.61	0.0000E00
230.83	0.0000E00
231.05	0.0000E00
231.26	0.0000E00
231.48	-0.0000E00
231.70	0.0000E00
231.91	-0.0000E00
232.13	-0.0000E00
232.34	0.0000E00
232.56	0.0000E00
232.78	-0.0000E00
232.99	0.0000E00
233.21	0.0000E00
233.42	-0.0000E00
233.64	0.0000E00
233.86	-0.0000E00
234.07	-0.0000E00
234.29	0.0000E00
234.50	-0.0000E00
234.72	-0.0000E00
234.94	-0.0000E00
235.15	0.0000E00
235.37	-0.0000E00
235.58	0.0000E00
235.80	0.0000E00
236.02	0.0000E00
236.23	0.0000E00
236.45	-0.0000E00
236.66	-0.0000E00
236.88	0.0000E00
237.10	0.0000E00
237.31	-0.0000E00
237.53	0.0000E00
237.74	0.0000E00
237.96	-0.0000E00
238.17	-0.0000E00
238.39	0.0000E00
238.61	0.0000E00
238.82	-0.0000E00
239.04	-0.0000E00
239.25	-0.0000E00
239.47	-0.0000E00
239.69	-0.0000E00
239.90	-0.0000E00
240.12	0.0000E00
240.33	0.0000E00
240.55	-0.0000E00
240.76	0.0000E00
240.98	-0.0000E00
241.20	-0.0000E00
241.41	-0.0000E00
241.63	-0.0000E00
241.84	-0.0000E00
242.06	-0.0000E00
242.27	-0.0000E00
242.49	-0.0000E00
242.70	-0.0000E00
242.92	0.0000E00
243.14	0.0000E00
243.35	-0.0000E00
243.57	0.0000E00
243.78	-0.0000E00
244.00	0.0000E00
244.21	-0.0000E00
244.43	0.0000E00
244.64	-0.0000E00
244.86	-0.0000E00
245.08	-0.0000E00
245.29	0.0000E00
245.51	-0.0000E00
245.72	-0.0000E00
245.94	0.0000E00
246.15	0.0000E00
246.37	0.0000E00
246.58	-0.0000E00
246.80	0.0000E00
247.01	0.0000E00
247.23	-0.0000E00
247.45	0.0000E00
247.66	0.0000E00
247.88	0.0000E00
248.09	-0.0000E00
248.31	-0.0000E00
248.52	-0.0000E00
248.74	-0.0000E00
248.95	0.0000E00
249.17	0.0000E00
249.38	-0.0000E00
249.60	-0.0000E00
249.81	0.0000E00
250.03	0.0000E00
250.24	-0.0000E00
250.46	0.0000E00
250.67	-0.0000E00
250.89	0.0000E00
251.10	-0.0000E00
251.32	0.0000E00
251.53	-0.0000E00
251.75	-0.0000E00
251.97	-0.0000E00
252.18	0.0000E00
252.40	-0.0000E00
252.61	0.0000E00
252.83	0.0000E00
253.04	-0.0000E00
253.26	0.0000E00
253.47	-0.0000E00
253.69	0.0000E00
253.90	0.0000E00
254.12	-0.0000E00
254.33	-0.0000E00
254.55	-0.0000E00
254.76	0.0000E00
254.98	0.0000E00
255.19	-0.0000E00
255.41	0.0000E00
255.62	0.0000E00
255.84	-0.0000E00
256.05	-0.0000E00
256.27	0.0000E00
256.48	0.0000E00
256.70	0.0000E00
256.91	-0.0000E00
257.13	-0.0000E00
257.34	0.0000E00
257.55	0.0000E00
257.77	0.0000E00
257.98	-0.0000E00
258.20	0.0000E00
258.41	0.0000E00
258.63	-0.0000E00
258.84	-0.0000E00
259.06	0.0000E00
259.27	-0.0000E00
259.49	0.0000E00
259.70	0.0000E00
259.92	-0.0000E00
260.13	0.0000E00
260.35	-0.0000E00
260.56	-0.0000E00
260.78	-0.0000E00
260.99	-0.0000E00
261.21	-0.0000E00
261.42	-0.0000E00
261.63	-0.0000E00
261.85	-0.0000E00
262.06	-0.0000E00
262.28	0.0000E00
262.49	-0.0000E00
262.71	0.0000E00
262.92	-0.0000E00
263.14	-0.0000E00
263.35	-0.0000E00
263.57	0.0000E00
263.78	0.0000E00
264.00	0.0000E00
264.21	-0.0000E00
264.42	-0.0000E00
264.64	-0.0000E00
264.85	-0.0000E00
265.07	-0.0000E00
265.28	-0.0000E00
265.50	-0.0000E00
265.71	0.0000E00
265.93	-0.0000E00
266.14	-0.0000E00
266.35	0.0000E00
266.57	-0.0000E00
266.78	0.0000E00
267.00	0.0000E00
267.21	0.0000E00
267.43	0.0000E00
267.64	-0.0000E00
267.85	-0.0000E00
268.07	0.0000E00
268.28	0.0000E00
268.50	-0.0000E00
268.71	0.0000E00
268.93	-0.0000E00
269.14	0.0000E00
269.35	-0.0000E00
269.57	0.0000E00
269.78	-0.0000E00
270.00	0.0000E00
270.21	0.0000E00
270.43	-0.0000E00
270.64	0.0000E00
270.85	-0.0000E00
271.07	-0.0000E00
271.28	-0.0000E00
271.50	-0.0000E00
271.71	-0.0000E00
271.92	0.0000E00
272.14	0.0000E00
272.35	0.0000E00
272.57	-0.0000E00
272.78	-0.0000E00
272.99	0.0000E00
273.21	-0.0000E00
273.42	-0.0000E00
273.64	-0.0000E00
273.85	0.0000E00
274.07	0.0000E00
274.28	-0.0000E00
274.49	0.0000E00
274.71	-0.0000E00
274.92	-0.0000E00
275.13	-0.0000E00
275.35	0.0000E00
275.56	-0.0000E00
275.78	0.0000E00
275.99	-0.0000E00
276.20	-0.0000E00
276.42	-0.0000E00
276.63	-0.0000E00
276.85	-0.0000E00
277.06	0.0000E00
277.27	0.0000E00
277.49	0.0000E00
277.70	-0.0000E00
277.92	-0.0000E00
278.13	0.0000E00
278.34	0.0000E00
278.56	0.0000E00
278.77	0.0000E00
278.98	-0.0000E00
279.20	-0.0000E00
279.41	-0.0000E00
279.63	0.0000E00
279.84	-0.0000E00
280.05	-0.0000E00
280.27	-0.0000E00
280.48	0.0000E00
280.69	-0.0000E00
280.91	-0.0000E00
281.12	-0.0000E00
281.33	-0.0000E00
281.55	-0.0000E00
281.76	0.0000E00
281.98	0.0000E00
282.19	-0.0000E00
282.40	0.0000E00
282.62	0.0000E00
282.83	-0.0000E00
283.04	-0.0000E00
283.26	0.0000E00
283.47	0.0000E00
283.68	0.0000E00
283.90	-0.0000E00
284.11	0.0000E00
284.32	-0.0000E00
284.54	-0.0000E00
284.75	-0.0000E00
284.96	0.0000E00
285.18	-0.0000E00
285.39	-0.0000E00
285.60	0.0000E00
285.82	-0.0000E00
286.03	-0.0000E00
286.24	-0.0000E00
286.46	0.0000E00
286.67	0.0000E00
286.88	-0.0000E00
287.10	0.0000E00
287.31	-0.0000E00
287.52	0.0000E00
287.74	-0.0000E00
287.95	0.0000E00
288.16	0.0000E00
288.38	0.0000E00
288.59	-0.0000E00
288.80	-0.0000E00
289.02	-0.0000E00
289.23	-0.0000E00
289.44	0.0000E00
289.66	0.0000E00
289.87	0.0000E00
290.08	0.0000E00
290.30	-0.0000E00
290.51	-0.0000E00
290.72	-0.0000E00
290.94	0.0000E00
291.15	-0.0000E00
291.36	0.0000E00
291.57	0.0000E00
291.79	-0.0000E00
292.00	-0.0000E00
292.21	-0.0000E00
292.43	-0.0000E00
292.64	-0.0000E00
292.85	0.0000E00
293.07	-0.0000E00
293.28	0.0000E00
293.49	-0.0000E00
293.70	0.0000E00
293.92	0.0000E00
294.13	0.0000E00
294.34	0.0000E00
294.56	0.0000E00
294.77	0.0000E00
294.98	-0.0000E00
295.20	-0.0000E00
295.41	-0.0000E00
295.62	0.0000E00
295.83	-0.0000E00
296.05	0.0000E00
296.26	-0.0000E00
296.47	0.0000E00
296.69	-0.0000E00
296.90	0.0000E00
297.11	0.0000E00
297.32	-0.0000E00
297.54	-0.0000E00
297.75	-0.0000E00
297.96	-0.0000E00
298.17	0.0000E00
298.39	0.0000E00
298.60	-0.0000E00
298.81	0.0000E00
299.03	0.0000E00
299.24	0.0000E00
299.45	-0.0000E00
299.66	0.0000E00
299.88	0.0000E00
300.09	4.4058E-04
300.30	-4.9935E-06
300.51	7.7038E-04
300.73	-5.7390E-05
300.94	2.0165E-04
301.15	5.1721E-04
301.36	-2.0885E-04
301.58	1.0397E-04
301.79	1.1893E-03
302.00	2.4473E-04
302.21	-1.2928E-05
302.43	6.2991E-04
302.64	-5.1563E-05
302.85	6.5658E-04
303.06	-3.3216E-04
303.28	4.6041E-04
303.49	-2.2911E-04
303.70	9.8374E-04
303.91	-3.4608E-05
304.13	-2.9979E-04
304.34	1.0631E-04
304.55	9.9149E-04
304.76	-5.4708E-04
304.98	-1.2205E-04
305.19	8.1416E-04
305.40	-3.0141E-04
305.61	6.6057E-04
305.82	1.0273E-05
306.04	6.7688E-04
306.25	-3.1871E-04
306.46	8.9915E-04
306.67	-1.3020E-05
306.89	1.9425E-04
307.10	7.9109E-04
307.31	7.2819E-04
307.52	3.8805E-04
307.74	1.2580E-03
307.95	1.1819E-03
308.16	-4.0043E-04
308.37	7.8534E-04
308.58	4.1952E-04
308.80	1.0846E-03
309.01	8.8211E-04
309.22	-2.6417E-04
309.43	1.4210E-04
309.64	9.0543E-04
309.86	1.3565E-03
310.07	5.8232E-04
310.28	1.0494E-03
310.49	1.2425E-03
310.70	3.2097E-04
310.92	1.1050E-03
311.13	5.6726E-04
311.34	8.2597E-04
311.55	9.5644E-04
311.76	7.3247E-04
311.98	1.3472E-03
312.19	9.6545E-04
312.40	3.3804E-04
312.61	6.1795E-04
312.82	1.0070E-03
313.04	3.3479E-04
313.25	1.1639E-03
313.46	5.5897E-04
313.67	5.9766E-04
313.88	7.3581E-04
314.10	5.3318E-04
314.31	5.3572E-04
314.52	5.0931E-04
314.73	5.5034E-04
314.94	8.5767E-04
315.16	1.3543E-03
315.37	1.5981E-03
315.58	8.5532E-04
315.79	1.2594E-03
316.00	1.3365E-03
316.21	1.5060E-03
316.43	5.5471E-04
316.64	8.9541E-04
316.85	6.3888E-04
317.06	1.2874E-03
317.27	1.5568E-03
317.48	9.9050E-04
317.70	1.1268E-03
317.91	1.1149E-03
318.12	1.4007E-03
318.33	9.0177E-04
318.54	1.1255E-03
318.75	1.5604E-03
318.97	1.6907E-03
319.18	1.5099E-03
319.39	1.4372E-03
319.60	1.3947E-03
319.81	1.7352E-03
320.02	1.3720E-03
320.24	1.3053E-03
320.45	1.4919E-03
320.66	9.8804E-04
320.87	1.3766E-03
321.08	1.7431E-03
321.29	1.5856E-03
321.50	1.1475E-03
321.72	9.6307E-04
321.93	1.6844E-03
322.14	1.5083E-03
322.35	1.6221E-03
322.56	1.9209E-03
322.77	2.2371E-03
322.98	1.6717E-03
323.20	2.1118E-03
323.41	1.3712E-03
323.62	1.3275E-03
323.83	1.6122E-03
324.04	1.2638E-03
324.25	1.2570E-03
324.46	1.7873E-03
324.67	1.7657E-03
324.89	1.5709E-03
325.10	1.6625E-03
325.31	2.3218E-03
325.52	2.4988E-03
325.73	2.0618E-03
325.94	2.2955E-03
326.15	1.7177E-03
326.36	2.6263E-03
326.58	3.4311E-03
326.79	2.9467E-03
327.00	1.5406E-03
327.21	2.7227E-03
327.42	2.7267E-03
327.63	2.8694E-03
327.84	2.9062E-03
328.05	3.2055E-03
328.26	2.5063E-03
328.48	2.9903E-03
328.69	4.1344E-03
328.90	3.1683E-03
329.11	3.2370E-03
329.32	3.3592E-03
329.53	2.6463E-03
329.74	3.2853E-03
329.95	3.2919E-03
330.16	3.0575E-03
330.37	3.1408E-03
330.59	3.5186E-03
330.80	3.9268E-03
331.01	3.8982E-03
331.22	3.9364E-03
331.43	3.4389E-03
331.64	2.8775E-03
331.85	3.9559E-03
332.06	3.7716E-03
332.27	3.3925E-03
332.48	4.4391E-03
332.69	3.3700E-03
332.91	4.0402E-03
333.12	3.4484E-03
333.33	4.8174E-03
333.54	3.2785E-03
333.75	2.5018E-03
333.96	3.2166E-03
334.17	2.6565E-03
334.38	3.4589E-03
334.59	4.6767E-03
334.80	3.2736E-03
335.01	3.4070E-03
335.22	3.1878E-03
335.43	3.4615E-03
335.64	3.6378E-03
335.86	4.3913E-03
336.07	3.6295E-03
336.28	2.5892E-03
336.49	4.7765E-03
336.70	3.4801E-03
336.91	3.8352E-03
337.12	3.4323E-03
337.33	3.8348E-03
337.54	3.5901E-03
337.75	3.5228E-03
337.96	4.1854E-03
338.17	4.2612E-03
338.38	3.9371E-03
338.59	4.2513E-03
338.80	2.9497E-03
339.01	4.6902E-03
339.22	4.5705E-03
339.43	4.5193E-03
339.65	4.4315E-03
339.86	3.8394E-03
340.07	4.0176E-03
340.28	4.5700E-03
340.49	3.6617E-03
340.70	4.2884E-03
340.91	3.8421E-03
341.12	3.5894E-03
341.33	4.4161E-03
341.54	4.4861E-03
341.75	3.8745E-03
341.96	4.1134E-03
342.17	4.6236E-03
342.38	3.6586E-03
342.59	3.8912E-03
342.80	4.0728E-03
343.01	4.5534E-03
343.22	4.3992E-03
343.43	3.8874E-03
343.64	4.1518E-03
343.85	3.9224E-03
344.06	4.1408E-03
344.27	4.6945E-03
344.48	5.5821E-03
344.69	4.6265E-03
344.90	4.6646E-03
345.11	4.8979E-03
345.32	4.6402E-03
345.53	3.7980E-03
345.74	5.0668E-03
345.95	3.9350E-03
346.16	4.4288E-03
346.37	4.6175E-03
346.58	4.7872E-03
346.79	4.3046E-03
347.00	5.4015E-03
347.21	5.6736E-03
347.42	4.7099E-03
347.63	4.0250E-03
347.84	5.0550E-03
348.05	5.4620E-03
348.26	4.7538E-03
348.47	5.2360E-03
348.68	4.8541E-03
348.89	3.8256E-03
349.10	5.0367E-03
349.31	6.1532E-03
349.52	4.5752E-03
349.73	5.1307E-03
349.94	5.2232E-03
350.15	4.5962E-03
350.36	5.5761E-03
350.57	5.5428E-03
350.78	5.8015E-03
350.99	5.7849E-03
351.20	5.4985E-03
351.41	6.0594E-03
351.62	5.0404E-03
351.83	5.0647E-03
352.04	5.2599E-03
352.25	5.3524E-03
352.46	5.0464E-03
352.67	5.0140E-03
352.88	5.6391E-03
353.09	4.1555E-03
353.30	4.8391E-03
353.51	5.3370E-03
353.72	6.2247E-03
353.93	4.8787E-03
354.14	4.9041E-03
354.35	5.8495E-03
354.56	5.5134E-03
354.77	6.5832E-03
354.98	5.2203E-03
355.19	5.5946E-03
355.39	5.2107E-03
355.60	5.1695E-03
355.81	5.5336E-03
356.02	6.3710E-03
356.23	4.8517E-03
356.44	4.3660E-03
356.65	6.3374E-03
356.86	5.6537E-03
357.07	5.3615E-03
357.28	6.0410E-03
357.49	5.8922E-03
357.70	6.2496E-03
357.91	4.9755E-03
358.12	4.6614E-03
358.33	5.6193E-03
358.54	6.0733E-03
358.75	5.5630E-03
358.96	5.8157E-03
359.16	4.3830E-03
359.37	6.3566E-03
359.58	5.8649E-03
359.79	5.1680E-03
360.00	5.6239E-03
360.21	6.0918E-03
360.42	5.2280E-03
360.63	6.7264E-03
360.84	6.9888E-03
361.05	5.1294E-03
361.26	5.5024E-03
361.47	6.8196E-03
361.68	6.0173E-03
361.88	6.0993E-03
362.09	5.9069E-03
362.30	6.8418E-03
362.51	5.7880E-03
362.72	6.6916E-03
362.93	6.4095E-03
363.14	6.8180E-03
363.35	6.5085E-03
363.56	6.0479E-03
363.77	6.7750E-03
363.98	6.8632E-03
364.18	7.7539E-03
364.39	7.3298E-03
364.60	7.1644E-03
364.81	7.5122E-03
365.02	7.1206E-03
365.23	7.5466E-03
365.44	7.2434E-03
365.65	6.8372E-03
365.86	6.3898E-03
366.07	7.4436E-03
366.27	7.3670E-03
366.48	7.7163E-03
366.69	7.2782E-03
366.90	7.2125E-03
367.11	7.2278E-03
367.32	7.2455E-03
367.53	7.3631E-03
367.74	6.5319E-03
367.95	6.5799E-03
368.15	7.4017E-03
368.36	7.3330E-03
368.57	6.4246E-03
368.78	7.6961E-03
368.99	7.3616E-03
369.20	6.8305E-03
369.41	8.4969E-03
369.62	7.4982E-03
369.82	8.3567E-03
370.03	7.0054E-03
370.24	8.2519E-03
370.45	7.0920E-03
370.66	6.5290E-03
370.87	6.9551E-03
371.08	6.8598E-03
371.28	7.0264E-03
371.49	7.0764E-03
371.70	6.8478E-03
371.91	6.6789E-03
372.12	6.5018E-03
372.33	6.8679E-03
372.54	6.9419E-03
372.74	7.1080E-03
372.95	5.9468E-03
373.16	7.2785E-03
373.37	7.0248E-03
373.58	6.2023E-03
373.79	7.1767E-03
374.00	6.3347E-03
374.20	7.5298E-03
374.41	7.4887E-03
374.62	6.5507E-03
374.83	6.7362E-03
375.04	7.2145E-03
375.25	7.3993E-03
375.45	6.4165E-03
375.66	7.6748E-03
375.87	7.3106E-03
376.08	8.3433E-03
376.29	8.3138E-03
376.50	7.9134E-03
376.70	7.2328E-03
376.91	7.7921E-03
377.12	7.7875E-03
377.33	6.9247E-03
377.54	7.3510E-03
377.75	8.4439E-03
377.95	7.8317E-03
378.16	7.7444E-03
378.37	7.1719E-03
378.58	8.1057E-03
378.79	7.1957E-03
379.00	8.2282E-03
379.20	7.3734E-03
379.41	8.0419E-03
379.62	7.9782E-03
379.83	7.4725E-03
380.04	7.5165E-03
380.24	7.8732E-03
380.45	6.2465E-03
380.66	7.0454E-03
380.87	7.4616E-03
381.08	7.5559E-03
381.28	6.6925E-03
381.49	7.2445E-03
381.70	6.7832E-03
381.91	6.9629E-03
382.12	7.3260E-03
382.32	6.7299E-03
382.53	7.5231E-03
382.74	6.4914E-03
382.95	7.0078E-03
383.16	7.2711E-03
383.36	6.1302E-03
383.57	7.1252E-03
383.78	7.4272E-03
383.99	6.6078E-03
384.20	6.9634E-03
384.40	7.0872E-03
384.61	7.9595E-03
384.82	8.0717E-03
385.03	7.9593E-03
385.23	7.8978E-03
385.44	7.5481E-03
385.65	8.3310E-03
385.86	7.5004E-03
386.07	9.2371E-03
386.27	7.1826E-03
386.48	7.7369E-03
386.69	8.4197E-03
386.90	7.0151E-03
387.10	7.5276E-03
387.31	8.5965E-03
387.52	7.7544E-03
387.73	8.4761E-03
387.94	8.8948E-03
388.14	7.8964E-03
388.35	8.4443E-03
388.56	9.8439E-03
388.77	8.9879E-03
388.97	9.3601E-03
389.18	9.4150E-03
389.39	9.0449E-03
389.60	9.5183E-03
389.80	1.0028E-02
390.01	9.7576E-03
390.22	9.5703E-03
390.43	8.6948E-03
390.63	9.0942E-03
390.84	9.1466E-03
391.05	9.9471E-03
391.26	9.2834E-03
391.46	8.9449E-03
391.67	8.9457E-03
391.88	7.9764E-03
392.09	8.1223E-03
392.29	9.3653E-03
392.50	8.4746E-03
392.71	9.0032E-03
392.92	9.1954E-03
393.12	9.1349E-03
393.33	9.5861E-03
393.54	8.7743E-03
393.74	8.0575E-03
393.95	8.3795E-03
394.16	9.6559E-03
394.37	9.0646E-03
394.57	8.9072E-03
394.78	9.4324E-03
394.99	9.4839E-03
395.19	8.9189E-03
395.40	8.8911E-03
395.61	8.9328E-03
395.82	9.9986E-03
396.02	9.2873E-03
396.23	1.0152E-02
396.44	1.0577E-02
396.65	9.2300E-03
396.85	1.0715E-02
397.06	1.0495E-02
397.27	1.0461E-02
397.47	1.1078E-02
397.68	1.0898E-02
397.89	1.0418E-02
398.09	1.0525E-02
398.30	1.0728E-02
398.51	1.0607E-02
398.72	1.1134E-02
398.92	1.2093E-02
399.13	1.2005E-02
399.34	1.3184E-02
399.54	1.3309E-02
399.75	1.3225E-02
399.96	1.2113E-02
400.16	1.2539E-02
400.37	1.3140E-02
400.58	1.3173E-02
400.78	1.3655E-02
400.99	1.2400E-02
401.20	1.4021E-02
401.41	1.3904E-02
401.61	1.2987E-02
401.82	1.3649E-02
402.03	1.3191E-02
402.23	1.3295E-02
402.44	1.3934E-02
402.65	1.3422E-02
402.85	1.3645E-02
403.06	1.3461E-02
403.27	1.3295E-02
403.47	1.3841E-02
403.68	1.3256E-02
403.89	1.4054E-02
404.09	1.3654E-02
404.30	1.2819E-02
404.51	1.3641E-02
404.71	1.3744E-02
404.92	1.3925E-02
405.13	1.2847E-02
405.33	1.3228E-02
405.54	1.3133E-02
405.75	1.3869E-02
405.95	1.3754E-02
406.16	1.2501E-02
406.37	1.3792E-02
406.57	1.3618E-02
406.78	1.4321E-02
406.99	1.4085E-02
407.19	1.4588E-02
407.40	1.4426E-02
407.60	1.4313E-02
407.81	1.4309E-02
408.02	1.3663E-02
408.22	1.3634E-02
408.43	1.4779E-02
408.64	1.4291E-02
408.84	1.4374E-02
409.05	1.3184E-02
409.26	1.5119E-02
409.46	1.4535E-02
409.67	1.4649E-02
409.87	1.5124E-02
410.08	1.4378E-02
410.29	1.5456E-02
410.49	1.4467E-02
410.70	1.5212E-02
410.91	1.4822E-02
411.11	1.5551E-02
411.32	1.4977E-02
411.52	1.4326E-02
411.73	1.5577E-02
411.94	1.5308E-02
412.14	1.6032E-02
412.35	1.5253E-02
412.56	1.5991E-02
412.76	1.6090E-02
412.97	1.5050E-02
413.17	1.6053E-02
413.38	1.6553E-02
413.59	1.5795E-02
413.79	1.5827E-02
414.00	1.6380E-02
414.20	1.6826E-02
414.41	1.5537E-02
414.62	1.6829E-02
414.82	1.6013E-02
415.03	1.5298E-02
415.23	1.6590E-02
415.44	1.5970E-02
415.65	1.6593E-02
415.85	1.5908E-02
416.06	1.6921E-02
416.26	1.6746E-02
416.47	1.6530E-02
416.68	1.7067E-02
416.88	1.7544E-02
417.09	1.5716E-02
417.29	1.6663E-02
417.50	1.7040E-02
417.71	1.6885E-02
417.91	1.6774E-02
418.12	1.7028E-02
418.32	1.7328E-02
418.53	1.7565E-02
418.73	1.6132E-02
418.94	1.6660E-02
419.15	1.6591E-02
419.35	1.6966E-02
419.56	1.6957E-02
419.76	1.5782E-02
419.97	1.7791E-02
420.17	1.6405E-02
420.38	1.5915E-02
420.59	1.7160E-02
420.79	1.7896E-02
421.00	1.6338E-02
421.20	1.6035E-02
421.41	1.6771E-02
421.61	1.6645E-02
421.82	1.7272E-02
422.02	1.6956E-02
422.23	1.5554E-02
422.44	1.7720E-02
422.64	1.6490E-02
422.85	1.6894E-02
423.05	1.7197E-02
423.26	1.7011E-02
423.46	1.7006E-02
423.67	1.6299E-02
423.87	1.6890E-02
424.08	1.6740E-02
424.29	1.7000E-02
424.49	1.7746E-02
424.70	1.6177E-02
424.90	1.7452E-02
425.11	1.7675E-02
425.31	1.7636E-02
425.52	1.7588E-02
425.72	1.6884E-02
425.93	1.7170E-02
426.13	1.7027E-02
426.34	1.6723E-02
426.54	1.7333E-02
426.75	1.6874E-02
426.95	1.7188E-02
427.16	1.7296E-02
427.36	1.6854E-02
427.57	1.5889E-02
427.78	1.6364E-02
427.98	1.6295E-02
428.19	1.6799E-02
428.39	1.6206E-02
428.60	1.6134E-02
428.80	1.6085E-02
429.01	1.7214E-02
429.21	1.5392E-02
429.42	1.7032E-02
429.62	1.6970E-02
429.83	1.6444E-02
430.03	1.5692E-02
430.24	1.6759E-02
430.44	1.5832E-02
430.65	1.6764E-02
430.85	1.7187E-02
431.06	1.6883E-02
431.26	1.7146E-02
431.47	1.6281E-02
431.67	1.8285E-02
431.88	1.7460E-02
432.08	1.7835E-02
432.29	1.8261E-02
432.49	1.7700E-02
432.70	1.7931E-02
432.90	1.8878E-02
433.11	1.8478E-02
433.31	1.7418E-02
433.52	1.8895E-02
433.72	1.8466E-02
433.93	1.8717E-02
434.13	1.8846E-02
434.34	1.9774E-02
434.54	1.8556E-02
434.74	1.9200E-02
434.95	1.9209E-02
435.15	1.9382E-02
435.36	1.9381E-02
435.56	1.8743E-02
435.77	1.9415E-02
435.97	1.9175E-02
436.18	2.0670E-02
436.38	2.0185E-02
436.59	1.9139E-02
436.79	2.0160E-02
437.00	2.0453E-02
437.20	1.9546E-02
437.41	1.9169E-02
437.61	2.0606E-02
437.81	2.0037E-02
438.02	1.9723E-02
438.22	2.0061E-02
438.43	1.9831E-02
438.63	2.0917E-02
438.84	2.0420E-02
439.04	2.0272E-02
439.25	2.0658E-02
439.45	2.0080E-02
439.66	2.0192E-02
439.86	2.0559E-02
440.06	2.1628E-02
440.27	2.0527E-02
440.47	2.0303E-02
440.68	2.1292E-02
440.88	2.1452E-02
441.09	2.1718E-02
441.29	2.2217E-02
441.49	2.1675E-02
441.70	2.2703E-02
441.90	2.1356E-02
442.11	2.2467E-02
442.31	2.2784E-02
442.52	2.2678E-02
442.72	2.1147E-02
442.92	2.1921E-02
443.13	2.2429E-02
443.33	2.2127E-02
443.54	2.2080E-02
443.74	2.2616E-02
443.95	2.2648E-02
444.15	2.2282E-02
444.35	2.3001E-02
444.56	2.2101E-02
444.76	2.2046E-02
444.97	2.4263E-02
445.17	2.3305E-02
445.37	2.3941E-02
445.58	2.1968E-02
445.78	2.2897E-02
445.99	2.2448E-02
446.19	2.2649E-02
446.39	2.2676E-02
446.60	2.2481E-02
446.80	2.2938E-02
447.01	2.3327E-02
447.21	2.4243E-02
447.41	2.2841E-02
447.62	2.4300E-02
447.82	2.3514E-02
448.03	2.4472E-02
448.23	2.4395E-02
448.43	2.4346E-02
448.64	2.5098E-02
448.84	2.4668E-02
449.05	2.3870E-02
449.25	2.4836E-02
449.45	2.4338E-02
449.66	2.4864E-02
449.86	2.4527E-02
450.07	2.4132E-02
450.27	2.5283E-02
450.47	2.4288E-02
450.68	2.5194E-02
450.88	2.4287E-02
451.08	2.4905E-02
451.29	2.4334E-02
451.49	2.5530E-02
451.70	2.5205E-02
451.90	2.5813E-02
452.10	2.5302E-02
452.31	2.4157E-02
452.51	2.4812E-02
452.71	2.4476E-02
452.92	2.5073E-02
453.12	2.5467E-02
453.32	2.5466E-02
453.53	2.4689E-02
453.73	2.4519E-02
453.93	2.4409E-02
454.14	2.5375E-02
454.34	2.5672E-02
454.55	2.5630E-02
454.75	2.5871E-02
454.95	2.4250E-02
455.16	2.6812E-02
455.36	2.4668E-02
455.56	2.6516E-02
455.77	2.6433E-02
455.97	2.6414E-02
456.17	2.5325E-02
456.38	2.6570E-02
456.58	2.6960E-02
456.78	2.6211E-02
456.99	2.4965E-02
457.19	2.6583E-02
457.39	2.6146E-02
457.60	2.6531E-02
457.80	2.6379E-02
458.00	2.6200E-02
458.21	2.7408E-02
458.41	2.7171E-02
458.61	2.6399E-02
458.82	2.6353E-02
459.02	2.6012E-02
459.22	2.7558E-02
459.43	2.7642E-02
459.63	2.7518E-02
459.83	2.5944E-02
460.03	2.7309E-02
460.24	2.7228E-02
460.44	2.6418E-02
460.64	2.6680E-02
460.85	2.8072E-02
461.05	2.6901E-02
461.25	2.7251E-02
461.46	2.6710E-02
461.66	2.6281E-02
461.86	2.7268E-02
462.07	2.7893E-02
462.27	2.7329E-02
462.47	2.7936E-02
462.67	2.7050E-02
462.88	2.8109E-02
463.08	2.6371E-02
463.28	2.7372E-02
463.49	2.7362E-02
463.69	2.7779E-02
463.89	2.6957E-02
464.09	2.7319E-02
464.30	2.7364E-02
464.50	2.8277E-02
464.70	2.7572E-02
464.91	2.6898E-02
465.11	2.7001E-02
465.31	2.6598E-02
465.51	2.7085E-02
465.72	2.7800E-02
465.92	2.7230E-02
466.12	2.6413E-02
466.33	2.7126E-02
466.53	2.7672E-02
466.73	2.8086E-02
466.93	2.7912E-02
467.14	2.6826E-02
467.34	2.9188E-02
467.54	2.8321E-02
467.74	2.7583E-02
467.95	2.7557E-02
468.15	2.7326E-02
468.35	2.8381E-02
468.55	2.8814E-02
468.76	2.8030E-02
468.96	2.7894E-02
469.16	2.7457E-02
469.37	2.7580E-02
469.57	2.8969E-02
469.77	2.8491E-02
469.97	2.8316E-02
470.18	2.9323E-02
470.38	2.8873E-02
470.58	2.8368E-02
470.78	2.8930E-02
470.99	2.9890E-02
471.19	2.8366E-02
471.39	2.8850E-02
471.59	2.7579E-02
471.79	2.8427E-02
472.00	2.8783E-02
472.20	2.8880E-02
472.40	2.7764E-02
472.60	2.9417E-02
472.81	3.0220E-02
473.01	3.0095E-02
473.21	2.8979E-02
473.41	2.8057E-02
473.62	2.8966E-02
473.82	2.9713E-02
474.02	2.9883E-02
474.22	2.9847E-02
474.42	3.0240E-02
474.63	2.9957E-02
474.83	3.0244E-02
475.03	2.9693E-02
475.23	3.0281E-02
475.44	3.1116E-02
475.64	2.9233E-02
475.84	3.0111E-02
476.04	2.9724E-02
476.24	3.0912E-02
476.45	3.0766E-02
476.65	2.9772E-02
476.85	2.9930E-02
477.05	3.0729E-02
477.25	3.1333E-02
477.46	3.0981E-02
477.66	3.0929E-02
477.86	3.1488E-02
478.06	2.9735E-02
478.26	3.0937E-02
478.47	3.0858E-02
478.67	3.3521E-02
478.87	3.0887E-02
479.07	3.0807E-02
479.27	3.2025E-02
479.47	3.1880E-02
479.68	3.2043E-02
479.88	3.2057E-02
480.08	3.1594E-02
480.28	3.1940E-02
480.48	3.1361E-02
480.69	3.2798E-02
480.89	3.0848E-02
481.09	3.1838E-02
481.29	3.2308E-02
481.49	3.0646E-02
481.69	3.1709E-02
481.90	3.2018E-02
482.10	3.1379E-02
482.30	3.0500E-02
482.50	3.1033E-02
482.70	3.0721E-02
482.90	3.0617E-02
483.11	3.0926E-02
483.31	3.0571E-02
483.51	2.9846E-02
483.71	2.9921E-02
483.91	2.9804E-02
484.11	3.0334E-02
484.32	2.9691E-02
484.52	3.0130E-02
484.72	2.9676E-02
484.92	2.9026E-02
485.12	2.8802E-02
485.32	2.8959E-02
485.52	2.8426E-02
485.73	2.8650E-02
485.93	2.8928E-02
486.13	2.8764E-02
486.33	2.9201E-02
486.53	2.9611E-02
486.73	3.0084E-02
486.93	2.9152E-02
487.14	3.0281E-02
487.34	2.9922E-02
487.54	3.0312E-02
487.74	3.0361E-02
487.94	2.9503E-02
488.14	3.0444E-02
488.34	3.0558E-02
488.54	3.0844E-02
488.75	3.0502E-02
488.95	3.0826E-02
489.15	3.0535E-02
489.35	3.0423E-02
489.55	3.0938E-02
489.75	3.1201E-02
489.95	3.0867E-02
490.15	3.1128E-02
490.36	3.1605E-02
490.56	3.1203E-02
490.76	3.1834E-02
490.96	3.0986E-02
491.16	3.1705E-02
491.36	3.1485E-02
491.56	3.1582E-02
491.76	3.0701E-02
491.96	3.1618E-02
492.17	3.1276E-02
492.37	3.1881E-02
492.57	3.2176E-02
492.77	3.2399E-02
492.97	3.2229E-02
493.17	3.2337E-02
493.37	3.2671E-02
493.57	3.2304E-02
493.77	3.2087E-02
493.97	3.3255E-02
494.17	3.2544E-02
494.38	3.3033E-02
494.58	3.2614E-02
494.78	3.2356E-02
494.98	3.2586E-02
495.18	3.2877E-02
495.38	3.2773E-02
495.58	3.2974E-02
495.78	3.3186E-02
495.98	3.3253E-02
496.18	3.3018E-02
496.38	3.2765E-02
496.58	3.2448E-02
496.78	3.3280E-02
496.99	3.2810E-02
497.19	3.2670E-02
497.39	3.2953E-02
497.59	3.2569E-02
497.79	3.2115E-02
497.99	3.2878E-02
498.19	3.2651E-02
498.39	3.2935E-02
498.59	3.2364E-02
498.79	3.2325E-02
498.99	3.2517E-02
499.19	3.2681E-02
499.39	3.2823E-02
499.59	3.2155E-02
499.79	3.2249E-02
499.99	3.2281E-02
500.19	3.2612E-02
500.40	3.2744E-02
500.60	3.2679E-02
500.80	3.3099E-02
501.00	3.2569E-02
501.20	3.2892E-02
501.40	3.3052E-02
501.60	3.3049E-02
501.80	3.3064E-02
502.00	3.3427E-02
502.20	3.3415E-02
502.40	3.3561E-02
502.60	3.3397E-02
502.80	3.4335E-02
503.00	3.4284E-02
503.20	3.4219E-02
503.40	3.4255E-02
503.60	3.4566E-02
503.80	3.5085E-02
504.00	3.5034E-02
504.20	3.5470E-02
504.40	3.5511E-02
504.60	3.5899E-02
504.80	3.6009E-02
505.00	3.6100E-02
505.20	3.6566E-02
505.40	3.6517E-02
505.60	3.6571E-02
505.80	3.6906E-02
506.00	3.7041E-02
506.20	3.7149E-02
506.40	3.7274E-02
506.60	3.7453E-02
506.80	3.7337E-02
507.00	3.7762E-02
507.20	3.8028E-02
507.40	3.8406E-02
507.60	3.8165E-02
507.80	3.8503E-02
508.00	3.8785E-02
508.20	3.9340E-02
508.40	3.9303E-02
508.60	3.9196E-02
508.80	3.9122E-02
509.00	4.0160E-02
509.20	3.9992E-02
509.40	4.0016E-02
509.60	4.0336E-02
509.80	4.0346E-02
510.00	4.0991E-02
510.20	4.1032E-02
510.40	4.1257E-02
510.60	4.1126E-02
510.80	4.1058E-02
511.00	4.1194E-02
511.20	4.1982E-02
511.40	4.1674E-02
511.60	4.1825E-02
511.80	4.2101E-02
512.00	4.2234E-02
512.20	4.2529E-02
512.40	4.2292E-02
512.60	4.2524E-02
512.80	4.2555E-02
513.00	4.2945E-02
513.20	4.2838E-02
513.40	4.2641E-02
513.59	4.2470E-02
513.79	4.2870E-02
513.99	4.2657E-02
514.19	4.2774E-02
514.39	4.2583E-02
514.59	4.2939E-02
514.79	4.2647E-02
514.99	4.2703E-02
515.19	4.2992E-02
515.39	4.3029E-02
515.59	4.3094E-02
515.79	4.2552E-02
515.99	4.3304E-02
516.19	4.3230E-02
516.39	4.3129E-02
516.59	4.3321E-02
516.79	4.3760E-02
516.98	4.3357E-02
517.18	4.4062E-02
517.38	4.4189E-02
517.58	4.4432E-02
517.78	4.4620E-02
517.98	4.4918E-02
518.18	4.5339E-02
518.38	4.6281E-02
518.58	4.6117E-02
518.78	4.6292E-02
518.98	4.6598E-02
519.18	4.7127E-02
519.38	4.7652E-02
519.57	4.7868E-02
519.77	4.7888E-02
519.97	4.8602E-02
520.17	4.8708E-02
520.37	4.8996E-02
520.57	4.9568E-02
520.77	4.9969E-02
520.97	5.0111E-02
521.17	5.0273E-02
521.37	5.0877E-02
521.57	5.1322E-02
521.76	5.1159E-02
521.96	5.1810E-02
522.16	5.1852E-02
522.36	5.2530E-02
522.56	5.1928E-02
522.76	5.2355E-02
522.96	5.2885E-02
523.16	5.2775E-02
523.36	5.3188E-02
523.55	5.2902E-02
523.75	5.3113E-02
523.95	5.3230E-02
524.15	5.3085E-02
524.35	5.3393E-02
524.55	5.3583E-02
524.75	5.3882E-02
524.95	5.4033E-02
525.14	5.3913E-02
525.34	5.3856E-02
525.54	5.3653E-02
525.74	5.4057E-02
525.94	5.4239E-02
526.14	5.4696E-02
526.34	5.4787E-02
526.54	5.5339E-02
526.73	5.4955E-02
526.93	5.5802E-02
527.13	5.6161E-02
527.33	5.6494E-02
527.53	5.7002E-02
527.73	5.6976E-02
527.93	5.7611E-02
528.12	5.7412E-02
528.32	5.7995E-02
528.52	5.8847E-02
528.72	5.9228E-02
528.92	5.9186E-02
529.12	5.9458E-02
529.32	5.9840E-02
529.51	6.0202E-02
529.71	6.0370E-02
529.91	6.0499E-02
530.11	6.0991E-02
530.31	6.1498E-02
530.51	6.1118E-02
530.70	6.1141E-02
530.90	6.1667E-02
531.10	6.1493E-02
531.30	6.1846E-02
531.50	6.1894E-02
531.70	6.2130E-02
531.89	6.1844E-02
532.09	6.2060E-02
532.29	6.2146E-02
532.49	6.2726E-02
532.69	6.2627E-02
532.88	6.2716E-02
533.08	6.2460E-02
533.28	6.2938E-02
533.48	6.3620E-02
533.68	6.3541E-02
533.88	6.4293E-02
534.07	6.4308E-02
534.27	6.4325E-02
534.47	6.4750E-02
534.67	6.4238E-02
534.87	6.5062E-02
535.06	6.5190E-02
535.26	6.5118E-02
535.46	6.5029E-02
535.66	6.6038E-02
535.86	6.5473E-02
536.05	6.5588E-02
536.25	6.5825E-02
536.45	6.5961E-02
536.65	6.5915E-02
536.85	6.5751E-02
537.04	6.6045E-02
537.24	6.6626E-02
537.44	6.5635E-02
537.64	6.5365E-02
537.83	6.6112E-02
538.03	6.6247E-02
538.23	6.6620E-02
538.43	6.6662E-02
538.63	6.6179E-02
538.82	6.6436E-02
539.02	6.6466E-02
539.22	6.6819E-02
539.42	6.6376E-02
539.61	6.6861E-02
539.81	6.7008E-02
540.01	6.6650E-02
540.21	6.6998E-02
540.41	6.6988E-02
540.60	6.7241E-02
540.80	6.7404E-02
541.00	6.7508E-02
541.20	6.8128E-02
541.39	6.8118E-02
541.59	6.8215E-02
541.79	6.8546E-02
541.99	6.9216E-02
542.18	6.9061E-02
542.38	6.9280E-02
542.58	6.9267E-02
542.78	6.9631E-02
542.97	6.9282E-02
543.17	6.9967E-02
543.37	6.9721E-02
543.57	7.0563E-02
543.76	7.1158E-02
543.96	7.1046E-02
544.16	7.0700E-02
544.36	7.1141E-02
544.55	7.1870E-02
544.75	7.1592E-02
544.95	7.2033E-02
545.14	7.1272E-02
545.34	7.2392E-02
545.54	7.2072E-02
545.74	7.2377E-02
545.93	7.2831E-02
546.13	7.2782E-02
546.33	7.2590E-02
546.53	7.2588E-02
546.72	7.3546E-02
546.92	7.3717E-02
547.12	7.3526E-02
547.31	7.3965E-02
547.51	7.3920E-02
547.71	7.4556E-02
547.91	7.4644E-02
548.10	7.4027E-02
548.30	7.4545E-02
548.50	7.5333E-02
548.69	7.5283E-02
548.89	7.5298E-02
549.09	7.5524E-02
549.29	7.5446E-02
549.48	7.6571E-02
549.68	7.5533E-02
549.88	7.6347E-02
550.07	7.6604E-02
550.27	7.6583E-02
550.47	7.4610E-02
550.66	7.7469E-02
550.86	7.6421E-02
551.06	7.7641E-02
551.25	7.6988E-02
551.45	7.7878E-02
551.65	7.8051E-02
551.85	7.8594E-02
552.04	7.7415E-02
552.24	7.8355E-02
552.44	7.8094E-02
552.63	7.8148E-02
552.83	7.8745E-02
553.03	7.8144E-02
553.22	7.9305E-02
553.42	7.8691E-02
553.62	7.9541E-02
553.81	7.8837E-02
554.01	7.9469E-02
554.21	7.9015E-02
554.40	7.9619E-02
554.60	7.9413E-02
554.80	7.9815E-02
554.99	7.9702E-02
555.19	7.9722E-02
555.39	7.9907E-02
555.58	7.9418E-02
555.78	7.9584E-02
555.98	7.9306E-02
556.17	7.9369E-02
556.37	7.9497E-02
556.56	7.9548E-02
556.76	7.9573E-02
556.96	7.9144E-02
557.15	7.9567E-02
557.35	7.9368E-02
557.55	7.9429E-02
557.74	7.9491E-02
557.94	7.9944E-02
558.14	8.0199E-02
558.33	7.9534E-02
558.53	7.9579E-02
558.73	8.0074E-02
558.92	7.9624E-02
559.12	8.0732E-02
559.31	8.0938E-02
559.51	8.1402E-02
559.71	8.0982E-02
559.90	8.1501E-02
560.10	8.1626E-02
560.30	8.1651E-02
560.49	8.1583E-02
560.69	8.2155E-02
560.88	8.2673E-02
561.08	8.1778E-02
561.28	8.2048E-02
561.47	8.2689E-02
561.67	8.2851E-02
561.86	8.2524E-02
562.06	8.2944E-02
562.26	8.3378E-02
562.45	8.3064E-02
562.65	8.3442E-02
562.84	8.2871E-02
563.04	8.3318E-02
563.24	8.3427E-02
563.43	8.4170E-02
563.63	8.4243E-02
563.82	8.3970E-02
564.02	8.4435E-02
564.22	8.4779E-02
564.41	8.4093E-02
564.61	8.4542E-02
564.80	8.4704E-02
565.00	8.4391E-02
565.20	8.5255E-02
565.39	8.4443E-02
565.59	8.4137E-02
565.78	8.4788E-02
565.98	8.4309E-02
566.18	8.5371E-02
566.37	8.5088E-02
566.57	8.4917E-02
566.76	8.4663E-02
566.96	8.5298E-02
567.15	8.4661E-02
567.35	8.5595E-02
567.55	8.5050E-02
567.74	8.5115E-02
567.94	8.4668E-02
568.13	8.5146E-02
568.33	8.5559E-02
568.52	8.5422E-02
568.72	8.5037E-02
568.91	8.4932E-02
569.11	8.5175E-02
569.31	8.5873E-02
569.50	8.5088E-02
569.70	8.5746E-02
569.89	8.5733E-02
570.09	8.5657E-02
570.28	8.5550E-02
570.48	8.5974E-02
570.67	8.6721E-02
570.87	8.5935E-02
571.07	8.6155E-02
571.26	8.6893E-02
571.46	8.6800E-02
571.65	8.7249E-02
571.85	8.7736E-02
572.04	8.7488E-02
572.24	8.8262E-02
572.43	8.7740E-02
572.63	8.8602E-02
572.82	8.8121E-02
573.02	8.8707E-02
573.21	8.8310E-02
573.41	8.8816E-02
573.60	8.9366E-02
573.80	8.9250E-02
573.99	8.8910E-02
574.19	8.9604E-02
574.38	8.9171E-02
574.58	8.9451E-02
574.78	8.8868E-02
574.97	8.9663E-02
575.17	8.9549E-02
575.36	8.9313E-02
575.56	8.9063E-02
575.75	8.9914E-02
575.95	8.9364E-02
576.14	8.9163E-02
576.34	9.0035E-02
576.53	8.9422E-02
576.73	8.9695E-02
576.92	8.9321E-02
577.12	9.0532E-02
577.31	8.9146E-02
577.51	9.0651E-02
577.70	9.0263E-02
577.90	9.0348E-02
578.09	9.0901E-02
578.29	9.0566E-02
578.48	9.1474E-02
578.68	9.1105E-02
578.87	9.2197E-02
579.06	9.1282E-02
579.26	9.1908E-02
579.45	9.1710E-02
579.65	9.3041E-02
579.84	9.2538E-02
580.04	9.3222E-02
580.23	9.3717E-02
580.43	9.2784E-02
580.62	9.3781E-02
580.82	9.3942E-02
581.01	9.3837E-02
581.21	9.4018E-02
581.40	9.3902E-02
581.60	9.4859E-02
581.79	9.5266E-02
581.99	9.4798E-02
582.18	9.4921E-02
582.37	9.5428E-02
582.57	9.5533E-02
582.76	9.5986E-02
582.96	9.6243E-02
583.15	9.6155E-02
583.35	9.6221E-02
583.54	9.6465E-02
583.74	9.6361E-02
583.93	9.5961E-02
584.12	9.5595E-02
584.32	9.6718E-02
584.51	9.6366E-02
584.71	9.5600E-02
584.90	9.5771E-02
585.10	9.5896E-02
585.29	9.5915E-02
585.49	9.5960E-02
585.68	9.6107E-02
585.87	9.5465E-02
586.07	9.5000E-02
586.26	9.4723E-02
586.46	9.4555E-02
586.65	9.4107E-02
586.85	9.4324E-02
587.04	9.3084E-02
587.23	9.4069E-02
587.43	9.3659E-02
587.62	9.2229E-02
587.82	9.3319E-02
588.01	9.2666E-02
588.20	9.2861E-02
588.40	9.2199E-02
588.59	9.2640E-02
588.79	9.2841E-02
588.98	9.3212E-02
589.18	9.2760E-02
589.37	9.3337E-02
589.56	9.2596E-02
589.76	9.2525E-02
589.95	9.4017E-02
590.15	9.3877E-02
590.34	9.3502E-02
590.53	9.4783E-02
590.73	9.4514E-02
590.92	9.4789E-02
591.11	9.5563E-02
591.31	9.5763E-02
591.50	9.6290E-02
591.70	9.6179E-02
591.89	9.6978E-02
592.08	9.6210E-02
592.28	9.6062E-02
592.47	9.7324E-02
592.67	9.7418E-02
592.86	9.7562E-02
593.05	9.6953E-02
593.25	9.7988E-02
593.44	9.7703E-02
593.63	9.8713E-02
593.83	9.8066E-02
594.02	9.9341E-02
594.22	9.9386E-02
594.41	1.0004E-01
594.60	9.9405E-02
594.80	9.9731E-02
594.99	9.9935E-02
595.18	1.0014E-01
595.38	1.0001E-01
595.57	1.0047E-01
595.76	1.0086E-01
595.96	1.0091E-01
596.15	1.0037E-01
596.34	1.0240E-01
596.54	1.0235E-01
596.73	1.0209E-01
596.93	1.0257E-01
597.12	1.0235E-01
597.31	1.0309E-01
597.51	1.0296E-01
597.70	1.0334E-01
597.89	1.0328E-01
598.09	1.0302E-01
598.28	1.0461E-01
598.47	1.0362E-01
598.67	1.0413E-01
598.86	1.0375E-01
599.05	1.0491E-01
599.25	1.0459E-01
599.44	1.0524E-01
599.63	1.0589E-01
599.83	1.0531E-01
600.02	1.0559E-01
600.21	1.0591E-01
600.41	1.0626E-01
600.60	1.0574E-01
600.79	1.0656E-01
600.98	1.0680E-01
601.18	1.0776E-01
601.37	1.0679E-01
601.56	1.0721E-01
601.76	1.0884E-01
601.95	1.0771E-01
602.14	1.0826E-01
602.34	1.0842E-01
602.53	1.0936E-01
602.72	1.0864E-01
602.92	1.0957E-01
603.11	1.0943E-01
603.30	1.1019E-01
603.49	1.0988E-01
603.69	1.1114E-01
603.88	1.1069E-01
604.07	1.1130E-01
604.27	1.1089E-01
604.46	1.1046E-01
604.65	1.1124E-01
604.84	1.1125E-01
605.04	1.1193E-01
605.23	1.1174E-01
605.42	1.1188E-01
605.62	1.1226E-01
605.81	1.1167E-01
606.00	1.1208E-01
606.19	1.1271E-01
606.39	1.1275E-01
606.58	1.1219E-01
606.77	1.1254E-01
606.97	1.1197E-01
607.16	1.1301E-01
607.35	1.1333E-01
607.54	1.1299E-01
607.74	1.1364E-01
607.93	1.1386E-01
608.12	1.1320E-01
608.31	1.1373E-01
608.51	1.1407E-01
608.70	1.1370E-01
608.89	1.1360E-01
609.08	1.1322E-01
609.28	1.1398E-01
609.47	1.1419E-01
609.66	1.1438E-01
609.85	1.1470E-01
610.05	1.1472E-01
610.24	1.1415E-01
610.43	1.1467E-01
610.62	1.1450E-01
610.82	1.1440E-01
611.01	1.1506E-01
611.20	1.1483E-01
611.39	1.1492E-01
611.59	1.1485E-01
611.78	1.1541E-01
611.97	1.1534E-01
612.16	1.1607E-01
612.35	1.1511E-01
612.55	1.1522E-01
612.74	1.1583E-01
612.93	1.1594E-01
613.12	1.1510E-01
613.32	1.1574E-01
613.51	1.1606E-01
613.70	1.1623E-01
613.89	1.1646E-01
614.08	1.1675E-01
614.28	1.1663E-01
614.47	1.1642E-01
614.66	1.1684E-01
614.85	1.1757E-01
615.04	1.1769E-01
615.24	1.1860E-01
615.43	1.1800E-01
615.62	1.1792E-01
615.81	1.1821E-01
616.00	1.1756E-01
616.20	1.1872E-01
616.39	1.1910E-01
616.58	1.1938E-01
616.77	1.1973E-01
616.96	1.2104E-01
617.16	1.2127E-01
617.35	1.2138E-01
617.54	1.2119E-01
617.73	1.2122E-01
617.92	1.2155E-01
618.12	1.2275E-01
618.31	1.2284E-01
618.50	1.2333E-01
618.69	1.2325E-01
618.88	1.2466E-01
619.07	1.2436E-01
619.27	1.2494E-01
619.46	1.2543E-01
619.65	1.2633E-01
619.84	1.2567E-01
620.03	1.2557E-01
620.22	1.2679E-01
620.42	1.2536E-01
620.61	1.2732E-01
620.80	1.2709E-01
620.99	1.2708E-01
621.18	1.2809E-01
621.37	1.2709E-01
621.57	1.2615E-01
621.76	1.2751E-01
621.95	1.2743E-01
622.14	1.2693E-01
622.33	1.2655E-01
622.52	1.2723E-01
622.71	1.2790E-01
622.91	1.2809E-01
623.10	1.2777E-01
623.29	1.2752E-01
623.48	1.2714E-01
623.67	1.2796E-01
623.86	1.2809E-01
624.05	1.2804E-01
624.25	1.2741E-01
624.44	1.2826E-01
624.63	1.2884E-01
624.82	1.2852E-01
625.01	1.2808E-01
625.20	1.2902E-01
625.39	1.2778E-01
625.58	1.2917E-01
625.78	1.2952E-01
625.97	1.2820E-01
626.16	1.2886E-01
626.35	1.2891E-01
626.54	1.2982E-01
626.73	1.2995E-01
626.92	1.2955E-01
627.11	1.2971E-01
627.31	1.2976E-01
627.50	1.2979E-01
627.69	1.3014E-01
627.88	1.3041E-01
628.07	1.2860E-01
628.26	1.2984E-01
628.45	1.2962E-01
628.64	1.3006E-01
628.83	1.2993E-01
629.02	1.2881E-01
629.22	1.3121E-01
629.41	1.2990E-01
629.60	1.2879E-01
629.79	1.3074E-01
629.98	1.2976E-01
630.17	1.3054E-01
630.36	1.3024E-01
630.55	1.3042E-01
630.74	1.3071E-01
630.93	1.3156E-01
631.12	1.3010E-01
631.31	1.3043E-01
631.51	1.3153E-01
631.70	1.3158E-01
631.89	1.3079E-01
632.08	1.3107E-01
632.27	1.3145E-01
632.46	1.3127E-01
632.65	1.3154E-01
632.84	1.3081E-01
633.03	1.3270E-01
633.22	1.3211E-01
633.41	1.3304E-01
633.60	1.3309E-01
633.79	1.3255E-01
633.98	1.3179E-01
634.17	1.3299E-01
634.37	1.3319E-01
634.56	1.3400E-01
634.75	1.3275E-01
634.94	1.3402E-01
635.13	1.3354E-01
635.32	1.3439E-01
635.51	1.3458E-01
635.70	1.3374E-01
635.89	1.3581E-01
636.08	1.3462E-01
636.27	1.3421E-01
636.46	1.3563E-01
636.65	1.3504E-01
636.84	1.3452E-01
637.03	1.3572E-01
637.22	1.3561E-01
637.41	1.3533E-01
637.60	1.3575E-01
637.79	1.3589E-01
637.98	1.3544E-01
638.17	1.3545E-01
638.36	1.3480E-01
638.55	1.3406E-01
638.74	1.3418E-01
638.93	1.3440E-01
639.12	1.3421E-01
639.31	1.3440E-01
639.50	1.3387E-01
639.69	1.3351E-01
639.88	1.3465E-01
640.07	1.3382E-01
640.26	1.3484E-01
640.45	1.3446E-01
640.64	1.3475E-01
640.83	1.3466E-01
641.02	1.3555E-01
641.21	1.3459E-01
641.40	1.3324E-01
641.59	1.3495E-01
641.78	1.3523E-01
641.97	1.3510E-01
642.16	1.3554E-01
642.35	1.3528E-01
642.54	1.3546E-01
642.73	1.3513E-01
642.92	1.3336E-01
643.11	1.3568E-01
643.30	1.3580E-01
643.49	1.3470E-01
643.68	1.3500E-01
643.87	1.3397E-01
644.06	1.3485E-01
644.25	1.3401E-01
644.44	1.3404E-01
644.63	1.3367E-01
644.82	1.3359E-01
645.01	1.3393E-01
645.20	1.3379E-01
645.39	1.3315E-01
645.58	1.3266E-01
645.77	1.3264E-01
645.96	1.3340E-01
646.15	1.3261E-01
646.34	1.3270E-01
646.53	1.3236E-01
646.72	1.3236E-01
646.91	1.3139E-01
647.10	1.3318E-01
647.29	1.3186E-01
647.47	1.3259E-01
647.66	1.3196E-01
647.85	1.3138E-01
648.04	1.3158E-01
648.23	1.3174E-01
648.42	1.3362E-01
648.61	1.3120E-01
648.80	1.3241E-01
648.99	1.3312E-01
649.18	1.3171E-01
649.37	1.3311E-01
649.56	1.3275E-01
649.75	1.3264E-01
649.94	1.3400E-01
650.13	1.3380E-01
650.31	1.3421E-01
650.50	1.3357E-01
650.69	1.3459E-01
650.88	1.3411E-01
651.07	1.3431E-01
651.26	1.3473E-01
651.45	1.3584E-01
651.64	1.3501E-01
651.83	1.3410E-01
652.02	1.3452E-01
652.21	1.3369E-01
652.40	1.3356E-01
652.58	1.3501E-01
652.77	1.3258E-01
652.96	1.3197E-01
653.15	1.3277E-01
653.34	1.3216E-01
653.53	1.3187E-01
653.72	1.3124E-01
653.91	1.2971E-01
654.10	1.2989E-01
654.29	1.2867E-01
654.47	1.3034E-01
654.66	1.2744E-01
654.85	1.2771E-01
655.04	1.2698E-01
655.23	1.2778E-01
655.42	1.2623E-01
655.61	1.2743E-01
655.80	1.2721E-01
655.98	1.2827E-01
656.17	1.2816E-01
656.36	1.2890E-01
656.55	1.2853E-01
656.74	1.3055E-01
656.93	1.3070E-01
657.12	1.3146E-01
657.31	1.3095E-01
657.49	1.3352E-01
657.68	1.3353E-01
657.87	1.3246E-01
658.06	1.3545E-01
658.25	1.3463E-01
658.44	1.3614E-01
658.63	1.3599E-01
658.81	1.3610E-01
659.00	1.3748E-01
659.19	1.3754E-01
659.38	1.3987E-01
659.57	1.4001E-01
659.76	1.3920E-01
659.95	1.4098E-01
660.13	1.3923E-01
660.32	1.4099E-01
660.51	1.4089E-01
660.70	1.4204E-01
660.89	1.4154E-01
661.08	1.4225E-01
661.26	1.4180E-01
661.45	1.4307E-01
661.64	1.4252E-01
661.83	1.4258E-01
662.02	1.4321E-01
662.21	1.4412E-01
662.39	1.4458E-01
662.58	1.4370E-01
662.77	1.4555E-01
662.96	1.4473E-01
663.15	1.4391E-01
663.33	1.4557E-01
663.52	1.4469E-01
663.71	1.4486E-01
663.90	1.4502E-01
664.09	1.4397E-01
664.28	1.4484E-01
664.46	1.4419E-01
664.65	1.4443E-01
664.84	1.4375E-01
665.03	1.4483E-01
665.22	1.4523E-01
665.40	1.4520E-01
665.59	1.4470E-01
665.78	1.4456E-01
665.97	1.4442E-01
666.16	1.4519E-01
666.34	1.4597E-01
666.53	1.4470E-01
666.72	1.4611E-01
666.91	1.4529E-01
667.09	1.4526E-01
667.28	1.4607E-01
667.47	1.4582E-01
667.66	1.4546E-01
667.85	1.4545E-01
668.03	1.4255E-01
668.22	1.4644E-01
668.41	1.4581E-01
668.60	1.4394E-01
668.78	1.4663E-01
668.97	1.4580E-01
669.16	1.4511E-01
669.35	1.4669E-01
669.54	1.4509E-01
669.72	1.4686E-01
669.91	1.4610E-01
670.10	1.4679E-01
670.29	1.4690E-01
670.47	1.4762E-01
670.66	1.4813E-01
670.85	1.4731E-01
671.04	1.4624E-01
671.22	1.4626E-01
671.41	1.4748E-01
671.60	1.4755E-01
671.79	1.4778E-01
671.97	1.4707E-01
672.16	1.4895E-01
672.35	1.4852E-01
672.54	1.4869E-01
672.72	1.4764E-01
672.91	1.4697E-01
673.10	1.4778E-01
673.28	1.4744E-01
673.47	1.4753E-01
673.66	1.4795E-01
673.85	1.4954E-01
674.03	1.4851E-01
674.22	1.4842E-01
674.41	1.4778E-01
674.60	1.4784E-01
674.78	1.4654E-01
674.97	1.4745E-01
675.16	1.5035E-01
675.34	1.4914E-01
675.53	1.4833E-01
675.72	1.4775E-01
675.91	1.5031E-01
676.09	1.4918E-01
676.28	1.4996E-01
676.47	1.4941E-01
676.65	1.4816E-01
676.84	1.4930E-01
677.03	1.5014E-01
677.22	1.4878E-01
677.40	1.4995E-01
677.59	1.4933E-01
677.78	1.4883E-01
677.96	1.4936E-01
678.15	1.5010E-01
678.34	1.5098E-01
678.52	1.4878E-01
678.71	1.4926E-01
678.90	1.4941E-01
679.08	1.4972E-01
679.27	1.4854E-01
679.46	1.5060E-01
679.64	1.4953E-01
679.83	1.4897E-01
680.02	1.4923E-01
680.21	1.4731E-01
680.39	1.5017E-01
680.58	1.4926E-01
680.77	1.4890E-01
680.95	1.4924E-01
681.14	1.4769E-01
681.33	1.4912E-01
681.51	1.4987E-01
681.70	1.4921E-01
681.89	1.4979E-01
682.07	1.4866E-01
682.26	1.4692E-01
682.44	1.4908E-01
682.63	1.4848E-01
682.82	1.4880E-01
683.00	1.4566E-01
683.19	1.4717E-01
683.38	1.4713E-01
683.56	1.4708E-01
683.75	1.4586E-01
683.94	1.4340E-01
684.12	1.4243E-01
684.31	1.4334E-01
684.50	1.4278E-01
684.68	1.4040E-01
684.87	1.3936E-01
685.05	1.3908E-01
685.24	1.3663E-01
685.43	1.3693E-01
685.61	1.3625E-01
685.80	1.3408E-01
685.99	1.3465E-01
686.17	1.3217E-01
686.36	1.3330E-01
686.54	1.3270E-01
686.73	1.3153E-01
686.92	1.3110E-01
687.10	1.3003E-01
687.29	1.3120E-01
687.48	1.2968E-01
687.66	1.3189E-01
687.85	1.3026E-01
688.03	1.3112E-01
688.22	1.2984E-01
688.41	1.3192E-01
688.59	1.3031E-01
688.78	1.3263E-01
688.96	1.3332E-01
689.15	1.3462E-01
689.34	1.3147E-01
689.52	1.3572E-01
689.71	1.3459E-01
689.89	1.3580E-01
690.08	1.3753E-01
690.27	1.3645E-01
690.45	1.3621E-01
690.64	1.3605E-01
690.82	1.3540E-01
691.01	1.3699E-01
691.19	1.3647E-01
691.38	1.3713E-01
691.57	1.3796E-01
691.75	1.3630E-01
691.94	1.3807E-01
692.12	1.3683E-01
692.31	1.3827E-01
692.50	1.3727E-01
692.68	1.3818E-01
692.87	1.3921E-01
693.05	1.3841E-01
693.24	1.3673E-01
693.42	1.3766E-01
693.61	1.3879E-01
693.79	1.3965E-01
693.98	1.3793E-01
694.17	1.3933E-01
694.35	1.4074E-01
694.54	1.4137E-01
694.72	1.4067E-01
694.91	1.4111E-01
695.09	1.4139E-01
695.28	1.4151E-01
695.46	1.4203E-01
695.65	1.4271E-01
695.83	1.4309E-01
696.02	1.4441E-01
696.21	1.4465E-01
696.39	1.4346E-01
696.58	1.4444E-01
696.76	1.4147E-01
696.95	1.4303E-01
697.13	1.4348E-01
697.32	1.4387E-01
697.50	1.4351E-01
697.69	1.4379E-01
697.87	1.4447E-01
698.06	1.4412E-01
698.24	1.4259E-01
698.43	1.4275E-01
698.61	1.4477E-01
698.80	1.4319E-01
698.98	1.4423E-01
699.17	1.4098E-01
699.35	1.4309E-01
699.54	1.4200E-01
699.72	1.4024E-01
699.91	1.4269E-01
700.09	1.4245E-01
700.28	1.4257E-01
700.46	1.4255E-01
700.65	1.4195E-01
700.83	1.4290E-01
701.02	1.4362E-01
701.20	1.4054E-01
701.39	1.4450E-01
701.57	1.4329E-01
701.76	1.4205E-01
701.94	1.4332E-01
702.13	1.4382E-01
702.31	1.4142E-01
702.50	1.4700E-01
702.68	1.4586E-01
702.87	1.4696E-01
703.05	1.4717E-01
703.24	1.4655E-01
703.42	1.4353E-01
703.61	1.4804E-01
703.79	1.4905E-01
703.98	1.4672E-01
704.16	1.4798E-01
704.35	1.4734E-01
704.53	1.4847E-01
704.72	1.4862E-01
704.90	1.4901E-01
705.08	1.4724E-01
705.27	1.5023E-01
705.45	1.4985E-01
705.64	1.5068E-01
705.82	1.5028E-01
706.01	1.5041E-01
706.19	1.4929E-01
706.38	1.5008E-01
706.56	1.5212E-01
706.75	1.5142E-01
706.93	1.5092E-01
707.11	1.4918E-01
707.30	1.5155E-01
707.48	1.5106E-01
707.67	1.4966E-01
707.85	1.5024E-01
708.04	1.5131E-01
708.22	1.5098E-01
708.40	1.4972E-01
708.59	1.4918E-01
708.77	1.5203E-01
708.96	1.5118E-01
709.14	1.5166E-01
709.33	1.5095E-01
709.51	1.5194E-01
709.69	1.5183E-01
709.88	1.5244E-01
710.06	1.5214E-01
710.25	1.5082E-01
710.43	1.5209E-01
710.62	1.5323E-01
710.80	1.5182E-01
710.98	1.5237E-01
711.17	1.5183E-01
711.35	1.5260E-01
711.54	1.5290E-01
711.72	1.5127E-01
711.90	1.5289E-01
712.09	1.5281E-01
712.27	1.5052E-01
712.46	1.5172E-01
712.64	1.5001E-01
712.82	1.5216E-01
713.01	1.5207E-01
713.19	1.5134E-01
713.37	1.4955E-01
713.56	1.4856E-01
713.74	1.4925E-01
713.93	1.4685E-01
714.11	1.4505E-01
714.29	1.4231E-01
714.48	1.4395E-01
714.66	1.4293E-01
714.85	1.4031E-01
715.03	1.3935E-01
715.21	1.3774E-01
715.40	1.3516E-01
715.58	1.3424E-01
715.76	1.3135E-01
715.95	1.3095E-01
716.13	1.3160E-01
716.31	1.2916E-01
716.50	1.2722E-01
716.68	1.2484E-01
716.87	1.2518E-01
717.05	1.2411E-01
717.23	1.2122E-01
717.42	1.2165E-01
717.60	1.1996E-01
717.78	1.2039E-01
717.97	1.1986E-01
718.15	1.1906E-01
718.33	1.1830E-01
718.52	1.1954E-01
718.70	1.2026E-01
718.88	1.1868E-01
719.07	1.2245E-01
719.25	1.2036E-01
719.43	1.2167E-01
719.62	1.2166E-01
719.80	1.2202E-01
719.98	1.2478E-01
720.17	1.2401E-01
720.35	1.2430E-01
720.53	1.2634E-01
720.72	1.2715E-01
720.90	1.2615E-01
721.08	1.2553E-01
721.27	1.2647E-01
721.45	1.2695E-01
721.63	1.2671E-01
721.82	1.2799E-01
722.00	1.2662E-01
722.18	1.2649E-01
722.36	1.2832E-01
722.55	1.2754E-01
722.73	1.2741E-01
722.91	1.2685E-01
723.10	1.2769E-01
723.28	1.2598E-01
723.46	1.2256E-01
723.65	1.2470E-01
723.83	1.2424E-01
724.01	1.2362E-01
724.19	1.2484E-01
724.38	1.2476E-01
724.56	1.2539E-01
724.74	1.2596E-01
724.93	1.2263E-01
725.11	1.2316E-01
725.29	1.2510E-01
725.47	1.2479E-01
725.66	1.2468E-01
725.84	1.2410E-01
726.02	1.2434E-01
726.21	1.2602E-01
726.39	1.2424E-01
726.57	1.2482E-01
726.75	1.2418E-01
726.94	1.2637E-01
727.12	1.2493E-01
727.30	1.2503E-01
727.48	1.2398E-01
727.67	1.2643E-01
727.85	1.2519E-01
728.03	1.2639E-01
728.21	1.2797E-01
728.40	1.2594E-01
728.58	1.2873E-01
728.76	1.2782E-01
728.94	1.2913E-01
729.13	1.3061E-01
729.31	1.2870E-01
729.49	1.3084E-01
729.67	1.3130E-01
729.86	1.3266E-01
730.04	1.3097E-01
730.22	1.3431E-01
730.40	1.3465E-01
730.59	1.3545E-01
730.77	1.3664E-01
730.95	1.3895E-01
731.13	1.3828E-01
731.31	1.3953E-01
731.50	1.3792E-01
731.68	1.4237E-01
731.86	1.4146E-01
732.04	1.4323E-01
732.23	1.4535E-01
732.41	1.4468E-01
732.59	1.4567E-01
732.77	1.4648E-01
732.95	1.4711E-01
733.14	1.4660E-01
733.32	1.4959E-01
733.50	1.4886E-01
733.68	1.4902E-01
733.86	1.4951E-01
734.05	1.5076E-01
734.23	1.5135E-01
734.41	1.4852E-01
734.59	1.5041E-01
734.77	1.5108E-01
734.96	1.4860E-01
735.14	1.5238E-01
735.32	1.5181E-01
735.50	1.5178E-01
735.68	1.5413E-01
735.87	1.5250E-01
736.05	1.5523E-01
736.23	1.5078E-01
736.41	1.5446E-01
736.59	1.5375E-01
736.77	1.5292E-01
736.96	1.5265E-01
737.14	1.5099E-01
737.32	1.5435E-01
737.50	1.5492E-01
737.68	1.5431E-01
737.87	1.5519E-01
738.05	1.5683E-01
738.23	1.5312E-01
738.41	1.5471E-01
738.59	1.5553E-01
738.77	1.5610E-01
738.95	1.5794E-01
739.14	1.5513E-01
739.32	1.5565E-01
739.50	1.5882E-01
739.68	1.5583E-01
739.86	1.5701E-01
740.04	1.5689E-01
740.23	1.5532E-01
740.41	1.5839E-01
740.59	1.5896E-01
740.77	1.6029E-01
740.95	1.5918E-01
741.13	1.5822E-01
741.31	1.5789E-01
741.50	1.5841E-01
741.68	1.5786E-01
741.86	1.5773E-01
742.04	1.6028E-01
742.22	1.6116E-01
742.40	1.6026E-01
742.58	1.6142E-01
742.76	1.6189E-01
742.95	1.5857E-01
743.13	1.6302E-01
743.31	1.6202E-01
743.49	1.6137E-01
743.67	1.6384E-01
743.85	1.6338E-01
744.03	1.6179E-01
744.21	1.6308E-01
744.39	1.6133E-01
744.58	1.6395E-01
744.76	1.6378E-01
744.94	1.6545E-01
745.12	1.6422E-01
745.30	1.6271E-01
745.48	1.6491E-01
745.66	1.6538E-01
745.84	1.6226E-01
746.02	1.6233E-01
746.20	1.6370E-01
746.38	1.6465E-01
746.57	1.6673E-01
746.75	1.6144E-01
746.93	1.6443E-01
747.11	1.6188E-01
747.29	1.6343E-01
747.47	1.6496E-01
747.65	1.6411E-01
747.83	1.6082E-01
748.01	1.6345E-01
748.19	1.6368E-01
748.37	1.6322E-01
748.55	1.6297E-01
748.73	1.6161E-01
748.92	1.6314E-01
749.10	1.6171E-01
749.28	1.6393E-01
749.46	1.6230E-01
749.64	1.6140E-01
749.82	1.6241E-01
750.00	1.6411E-01
750.18	1.6321E-01
750.36	1.6080E-01
750.54	1.6347E-01
750.72	1.6469E-01
750.90	1.6461E-01
751.08	1.6319E-01
751.26	1.6492E-01
751.44	1.6467E-01
751.62	1.6646E-01
751.80	1.6447E-01
751.98	1.6555E-01
752.16	1.6632E-01
752.34	1.6680E-01
752.52	1.6795E-01
752.71	1.6419E-01
752.89	1.6391E-01
753.07	1.6813E-01
753.25	1.6428E-01
753.43	1.6861E-01
753.61	1.6617E-01
753.79	1.6980E-01
753.97	1.6931E-01
754.15	1.7004E-01
754.33	1.7085E-01
754.51	1.7122E-01
754.69	1.7170E-01
754.87	1.7049E-01
755.05	1.7090E-01
755.23	1.7304E-01
755.41	1.7424E-01
755.59	1.6415E-01
755.77	1.6956E-01
755.95	1.6857E-01
756.13	1.6466E-01
756.31	1.6717E-01
756.49	1.6606E-01
756.67	1.6227E-01
756.85	1.5986E-01
757.03	1.5667E-01
757.21	1.5487E-01
757.39	1.5277E-01
757.57	1.5074E-01
757.75	1.4462E-01
757.93	1.3876E-01
758.11	1.3745E-01
758.29	1.3438E-01
758.47	1.2988E-01
758.65	1.2795E-01
758.83	1.2808E-01
759.01	1.2321E-01
759.18	1.1893E-01
759.36	1.1220E-01
759.54	1.1354E-01
759.72	1.0874E-01
759.90	1.0875E-01
760.08	1.0726E-01
760.26	1.0642E-01
760.44	1.0277E-01
760.62	9.9785E-02
760.80	9.9497E-02
760.98	1.0378E-01
761.16	1.0322E-01
761.34	1.0092E-01
761.52	1.0415E-01
761.70	1.0058E-01
761.88	1.0172E-01
762.06	1.0259E-01
762.24	1.0254E-01
762.42	1.0378E-01
762.60	1.0473E-01
762.78	1.0689E-01
762.95	1.0719E-01
763.13	1.1046E-01
763.31	1.1261E-01
763.49	1.1287E-01
763.67	1.1547E-01
763.85	1.1479E-01
764.03	1.2126E-01
764.21	1.2042E-01
764.39	1.2498E-01
764.57	1.2955E-01
764.75	1.3028E-01
764.93	1.3727E-01
765.11	1.3557E-01
765.28	1.4118E-01
765.46	1.4272E-01
765.64	1.4410E-01
765.82	1.4816E-01
766.00	1.5149E-01
766.18	1.5359E-01
766.36	1.5539E-01
766.54	1.5662E-01
766.72	1.5893E-01
766.90	1.6473E-01
767.07	1.6106E-01
767.25	1.6505E-01
767.43	1.6731E-01
767.61	1.7065E-01
767.79	1.7206E-01
767.97	1.7252E-01
768.15	1.7226E-01
768.33	1.7202E-01
768.51	1.7585E-01
768.68	1.7651E-01
768.86	1.7559E-01
769.04	1.7666E-01
769.22	1.8181E-01
769.40	1.8152E-01
769.58	1.7953E-01
769.76	1.8445E-01
769.94	1.8413E-01
770.11	1.8133E-01
770.29	1.8321E-01
770.47	1.8326E-01
770.65	1.8398E-01
770.83	1.8374E-01
771.01	1.8586E-01
771.19	1.8561E-01
771.36	1.8288E-01
771.54	1.8571E-01
771.72	1.8381E-01
771.90	1.8160E-01
772.08	1.8459E-01
772.26	1.8653E-01
772.44	1.8162E-01
772.61	1.8438E-01
772.79	1.8130E-01
772.97	1.8509E-01
773.15	1.8712E-01
773.33	1.8233E-01
773.51	1.8515E-01
773.68	1.8213E-01
773.86	1.8105E-01
774.04	1.8278E-01
774.22	1.8019E-01
774.40	1.8180E-01
774.58	1.8332E-01
774.75	1.8279E-01
774.93	1.7895E-01
775.11	1.8372E-01
775.29	1.8068E-01
775.47	1.7808E-01
775.64	1.8210E-01
775.82	1.7990E-01
776.00	1.8082E-01
776.18	1.7825E-01
776.36	1.7829E-01
776.53	1.8285E-01
776.71	1.7830E-01
776.89	1.7731E-01
777.07	1.7916E-01
777.25	1.7867E-01
777.42	1.7864E-01
777.60	1.7625E-01
777.78	1.7867E-01
777.96	1.7696E-01
778.14	1.7856E-01
778.31	1.7619E-01
778.49	1.7189E-01
778.67	1.7316E-01
778.85	1.7408E-01
779.03	1.7569E-01
779.20	1.7521E-01
779.38	1.7388E-01
779.56	1.7135E-01
779.74	1.7520E-01
779.91	1.7268E-01
780.09	1.7206E-01
780.27	1.6944E-01
780.45	1.7065E-01
780.62	1.7224E-01
780.80	1.7275E-01
780.98	1.6800E-01
781.16	1.6557E-01
781.34	1.6983E-01
781.51	1.7014E-01
781.69	1.7034E-01
781.87	1.6939E-01
782.05	1.6841E-01
782.22	1.6860E-01
782.40	1.6688E-01
782.58	1.6819E-01
782.76	1.6517E-01
782.93	1.6822E-01
783.11	1.6987E-01
783.29	1.6547E-01
783.47	1.6547E-01
783.64	1.6639E-01
783.82	1.6399E-01
784.00	1.6054E-01
784.17	1.6322E-01
784.35	1.6341E-01
784.53	1.6197E-01
784.71	1.6355E-01
784.88	1.6133E-01
785.06	1.6506E-01
785.24	1.6151E-01
785.42	1.6358E-01
785.59	1.6207E-01
785.77	1.5711E-01
785.95	1.5896E-01
786.12	1.5654E-01
786.30	1.5880E-01
786.48	1.5793E-01
786.65	1.5660E-01
786.83	1.5732E-01
787.01	1.5750E-01
787.19	1.5556E-01
787.36	1.5621E-01
787.54	1.5457E-01
787.72	1.5573E-01
787.89	1.5486E-01
788.07	1.5387E-01
788.25	1.5300E-01
788.42	1.5202E-01
788.60	1.5503E-01
788.78	1.5202E-01
788.96	1.5218E-01
789.13	1.4949E-01
789.31	1.4995E-01
789.49	1.4975E-01
789.66	1.5183E-01
789.84	1.4849E-01
790.02	1.4456E-01
790.19	1.4722E-01
790.37	1.4829E-01
790.55	1.4712E-01
790.72	1.4715E-01
790.90	1.5048E-01
791.08	1.4572E-01
791.25	1.4670E-01
791.43	1.4689E-01
791.61	1.4506E-01
791.78	1.4506E-01
791.96	1.4164E-01
792.14	1.4446E-01
792.31	1.4618E-01
792.49	1.4051E-01
792.67	1.4678E-01
792.84	1.4263E-01
793.02	1.4265E-01
793.19	1.4133E-01
793.37	1.4484E-01
793.55	1.4481E-01
793.72	1.4402E-01
793.90	1.4031E-01
794.08	1.4280E-01
794.25	1.4278E-01
794.43	1.4022E-01
794.61	1.4184E-01
794.78	1.4176E-01
794.96	1.3817E-01
795.13	1.4148E-01
795.31	1.4204E-01
795.49	1.3803E-01
795.66	1.4064E-01
795.84	1.3936E-01
796.01	1.3991E-01
796.19	1.3788E-01
796.37	1.4049E-01
796.54	1.3898E-01
796.72	1.4021E-01
796.90	1.3836E-01
797.07	1.3582E-01
797.25	1.3805E-01
797.42	1.3982E-01
797.60	1.3873E-01
797.78	1.3653E-01
797.95	1.3416E-01
798.13	1.3267E-01
798.30	1.3592E-01
798.48	1.3473E-01
798.66	1.3684E-01
798.83	1.3133E-01
799.01	1.3409E-01
799.18	1.3214E-01
799.36	1.3549E-01
799.53	1.2874E-01
799.71	1.3417E-01
799.89	1.3128E-01
800.06	1.3154E-01
800.24	1.3149E-01
800.41	1.2761E-01
800.59	1.3322E-01
800.76	1.2823E-01
800.94	1.2839E-01
801.12	1.3160E-01
801.29	1.3074E-01
801.47	1.3228E-01
801.64	1.2856E-01
801.82	1.3192E-01
801.99	1.3186E-01
802.17	1.3180E-01
802.34	1.3077E-01
802.52	1.3060E-01
802.70	1.3211E-01
802.87	1.2837E-01
803.05	1.2697E-01
803.22	1.3289E-01
803.40	1.2918E-01
803.57	1.2924E-01
803.75	1.3247E-01
803.92	1.3001E-01
804.10	1.2598E-01
804.27	1.2636E-01
804.45	1.2847E-01
804.63	1.2693E-01
804.80	1.2502E-01
804.98	1.2787E-01
805.15	1.2335E-01
805.33	1.2973E-01
805.50	1.3026E-01
805.68	1.2864E-01
805.85	1.3002E-01
806.03	1.2738E-01
806.20	1.2763E-01
806.38	1.2103E-01
806.55	1.2257E-01
806.73	1.2895E-01
806.90	1.2489E-01
807.08	1.2398E-01
807.25	1.2076E-01
807.43	1.2449E-01
807.60	1.2602E-01
807.78	1.2174E-01
807.95	1.1857E-01
808.13	1.2019E-01
808.30	1.1928E-01
808.48	1.2385E-01
808.65	1.2175E-01
808.83	1.2575E-01
809.00	1.2183E-01
809.18	1.2522E-01
809.35	1.1895E-01
809.53	1.2321E-01
809.70	1.2081E-01
809.88	1.2117E-01
810.05	1.1964E-01
810.23	1.2154E-01
810.40	1.1928E-01
810.57	1.1880E-01
810.75	1.1517E-01
810.92	1.1445E-01
811.10	1.1477E-01
811.27	1.1136E-01
811.45	1.1302E-01
811.62	1.1089E-01
811.80	1.0879E-01
811.97	1.1141E-01
812.15	1.1095E-01
812.32	1.1059E-01
812.50	1.0438E-01
812.67	1.1293E-01
812.84	1.0477E-01
813.02	1.0738E-01
813.19	1.0625E-01
813.37	1.0596E-01
813.54	1.0206E-01
813.72	1.0318E-01
813.89	9.9125E-02
814.07	1.0151E-01
814.24	1.0183E-01
814.41	1.0224E-01
814.59	9.7159E-02
814.76	9.6107E-02
814.94	9.8692E-02
815.11	9.9773E-02
815.29	9.1070E-02
815.46	9.2610E-02
815.63	9.4480E-02
815.81	9.4453E-02
815.98	8.8125E-02
816.16	8.8688E-02
816.33	9.4170E-02
816.50	9.6074E-02
816.68	9.3618E-02
816.85	9.1120E-02
817.03	9.3910E-02
817.20	9.2116E-02
817.37	9.4443E-02
817.55	9.1960E-02
817.72	9.3732E-02
817.90	8.9522E-02
818.07	9.3102E-02
818.24	8.8428E-02
818.42	9.0161E-02
818.59	9.0128E-02
818.77	9.0032E-02
818.94	9.3917E-02
819.11	8.8851E-02
819.29	9.4404E-02
819.46	9.3831E-02
819.64	8.8242E-02
819.81	9.6392E-02
819.98	9.4990E-02
820.16	9.0858E-02
820.33	9.4233E-02
820.50	9.3736E-02
820.68	9.0064E-02
820.85	9.3750E-02
821.02	9.2501E-02
821.20	8.9198E-02
821.37	9.2726E-02
821.55	8.7157E-02
821.72	9.0737E-02
821.89	9.1392E-02
822.07	9.4958E-02
822.24	9.4352E-02
822.41	8.7640E-02
822.59	9.7250E-02
822.76	9.6954E-02
822.93	9.1244E-02
823.11	9.2954E-02
823.28	9.4848E-02
823.45	9.2588E-02
823.63	9.3033E-02
823.80	9.6347E-02
823.97	8.7864E-02
824.15	9.6972E-02
824.32	9.3604E-02
824.49	1.0047E-01
824.67	9.4412E-02
824.84	9.7071E-02
825.01	9.7068E-02
825.19	9.7165E-02
825.36	9.6770E-02
825.53	1.0015E-01
825.71	9.8503E-02
825.88	9.9483E-02
826.05	9.4314E-02
826.23	9.8280E-02
826.40	9.5555E-02
826.57	9.6312E-02
826.75	9.4550E-02
826.92	9.1671E-02
827.09	9.1813E-02
827.26	1.0005E-01
827.44	9.5695E-02
827.61	9.9674E-02
827.78	9.6814E-02
827.96	9.0265E-02
828.13	9.9033E-02
828.30	9.6175E-02
828.48	9.4364E-02
828.65	9.3462E-02
828.82	9.4314E-02
828.99	9.4461E-02
829.17	9.5142E-02
829.34	8.7955E-02
829.51	9.3721E-02
829.68	9.8194E-02
829.86	9.6761E-02
830.03	9.3528E-02
830.20	9.5369E-02
830.38	9.3909E-02
830.55	9.0572E-02
830.72	9.4838E-02
830.89	8.9617E-02
831.07	8.9474E-02
831.24	8.9419E-02
831.41	9.1086E-02
831.58	9.4839E-02
831.76	9.8124E-02
831.93	9.5179E-02
832.10	9.5022E-02
832.27	8.8494E-02
832.45	8.8511E-02
832.62	9.4208E-02
832.79	9.1228E-02
832.96	9.4879E-02
833.14	8.8700E-02
833.31	9.7621E-02
833.48	9.4125E-02
833.65	9.1482E-02
833.83	9.8238E-02
834.00	9.9042E-02
834.17	9.4097E-02
834.34	9.6952E-02
834.51	9.4292E-02
834.69	9.2036E-02
834.86	9.8302E-02
835.03	9.3831E-02
835.20	9.7719E-02
835.38	9.4476E-02
835.55	9.5599E-02
835.72	9.3432E-02
835.89	1.0252E-01
836.06	9.3359E-02
836.24	9.2911E-02
836.41	9.0337E-02
836.58	9.8076E-02
836.75	9.7209E-02
836.92	9.5477E-02
837.10	9.1394E-02
837.27	9.4212E-02
837.44	9.1225E-02
837.61	9.8660E-02
837.78	9.2663E-02
837.96	9.6011E-02
838.13	9.3569E-02
838.30	9.7752E-02
838.47	9.5637E-02
838.64	9.4414E-02
838.82	9.3805E-02
838.99	1.0054E-01
839.16	9.2971E-02
839.33	9.3920E-02
839.50	9.9869E-02
839.67	9.6612E-02
839.85	8.9775E-02
840.02	9.5679E-02
840.19	9.2599E-02
840.36	9.8756E-02
840.53	9.1103E-02
840.70	9.0298E-02
840.88	9.7147E-02
841.05	9.9357E-02
841.22	9.5801E-02
841.39	9.5593E-02
841.56	9.6680E-02
841.73	9.5704E-02
841.91	9.8894E-02
842.08	9.8371E-02
842.25	9.7349E-02
842.42	9.8981E-02
842.59	9.6720E-02
842.76	1.0344E-01
842.93	9.7544E-02
843.11	9.9282E-02
843.28	9.7444E-02
843.45	9.7993E-02
843.62	9.3444E-02
843.79	9.5010E-02
843.96	1.0195E-01
844.13	9.8236E-02
844.30	9.8050E-02
844.48	1.0192E-01
844.65	9.3591E-02
844.82	9.0605E-02
844.99	9.5196E-02
845.16	9.4180E-02
845.33	9.5159E-02
845.50	9.5255E-02
845.67	9.0654E-02
845.84	9.5240E-02
846.02	9.2411E-02
846.19	9.5781E-02
846.36	9.5792E-02
846.53	1.0106E-01
846.70	9.6276E-02
846.87	8.9315E-02
847.04	9.6869E-02
847.21	9.6688E-02
847.38	9.6722E-02
847.55	9.6707E-02
847.73	9.2284E-02
847.90	9.4561E-02
848.07	9.0574E-02
848.24	9.2038E-02
848.41	9.0167E-02
848.58	1.0327E-01
848.75	9.3256E-02
848.92	1.0062E-01
849.09	9.3949E-02
849.26	9.1838E-02
849.43	8.9277E-02
849.60	9.2162E-02
849.77	9.5374E-02
849.94	7.9728E-02
850.12	9.6791E-02
850.29	9.3400E-02
850.46	9.1167E-02
850.63	8.9483E-02
850.80	9.2370E-02
850.97	9.2046E-02
851.14	8.6296E-02
851.31	8.1820E-02
851.48	8.7306E-02
851.65	8.9111E-02
851.82	9.3674E-02
851.99	9.1771E-02
852.16	8.1056E-02
852.33	8.9022E-02
852.50	8.5632E-02
852.67	8.7164E-02
852.84	8.9065E-02
853.01	8.6421E-02
853.18	8.9891E-02
853.35	8.3963E-02
853.52	9.4174E-02
853.69	8.6615E-02
853.86	8.1787E-02
854.03	8.1338E-02
854.21	8.8375E-02
854.38	8.6446E-02
854.55	8.9244E-02
854.72	8.9950E-02
854.89	8.2163E-02
855.06	7.6805E-02
855.23	8.5136E-02
855.40	9.0997E-02
855.57	8.1486E-02
855.74	8.4529E-02
855.91	8.6977E-02
856.08	8.2365E-02
856.25	8.7457E-02
856.42	8.5696E-02
856.59	8.5002E-02
856.76	8.7234E-02
856.93	8.7245E-02
857.10	8.6661E-02
857.27	9.3976E-02
857.44	8.9249E-02
857.61	8.9109E-02
857.77	8.3961E-02
857.94	8.4531E-02
858.11	8.3639E-02
858.28	9.3249E-02
858.45	8.3648E-02
858.62	8.9171E-02
858.79	8.6019E-02
858.96	8.6482E-02
859.13	8.6619E-02
859.30	9.0843E-02
859.47	8.4862E-02
859.64	7.9056E-02
859.81	9.0186E-02
859.98	9.0567E-02
860.15	8.6768E-02
860.32	8.3940E-02
860.49	9.6756E-02
860.66	8.8486E-02
860.83	8.9733E-02
861.00	8.7848E-02
861.17	8.9049E-02
861.34	9.0206E-02
861.51	7.9242E-02
861.68	9.0641E-02
861.84	8.8086E-02
862.01	8.3429E-02
862.18	8.5278E-02
862.35	8.8664E-02
862.52	8.8886E-02
862.69	8.5371E-02
862.86	8.7415E-02
863.03	8.9491E-02
863.20	8.6849E-02
863.37	8.8011E-02
863.54	8.1675E-02
863.71	8.1121E-02
863.88	8.4194E-02
864.05	8.2912E-02
864.21	8.6955E-02
864.38	7.9212E-02
864.55	7.7672E-02
864.72	8.8753E-02
864.89	8.2286E-02
865.06	8.7386E-02
865.23	8.0903E-02
865.40	7.6593E-02
865.57	8.6937E-02
865.74	8.2949E-02
865.90	8.4087E-02
866.07	8.3057E-02
866.24	7.5936E-02
866.41	7.4690E-02
866.58	7.7198E-02
866.75	7.8330E-02
866.92	7.9006E-02
867.09	7.9449E-02
867.26	8.0438E-02
867.42	7.4953E-02
867.59	7.1695E-02
867.76	8.1601E-02
867.93	7.7239E-02
868.10	7.9411E-02
868.27	6.9651E-02
868.44	7.9789E-02
868.60	8.1865E-02
868.77	8.0719E-02
868.94	7.8151E-02
869.11	7.7233E-02
869.28	8.2777E-02
869.45	7.1174E-02
869.62	8.0852E-02
869.78	7.7517E-02
869.95	7.2165E-02
870.12	7.5821E-02
870.29	7.9446E-02
870.46	8.0365E-02
870.63	7.5049E-02
870.80	7.0179E-02
870.96	7.4733E-02
871.13	7.3320E-02
871.30	7.9260E-02
871.47	7.9472E-02
871.64	7.9013E-02
871.81	6.5507E-02
871.97	8.2428E-02
872.14	6.9879E-02
872.31	6.7685E-02
872.48	7.2688E-02
872.65	7.9514E-02
872.81	7.3670E-02
872.98	8.1472E-02
873.15	7.8673E-02
873.32	7.8995E-02
873.49	7.4358E-02
873.66	7.8487E-02
873.82	7.5022E-02
873.99	7.1837E-02
874.16	7.6854E-02
874.33	7.3263E-02
874.50	7.8640E-02
874.66	7.4237E-02
874.83	7.5720E-02
875.00	7.4635E-02
875.17	6.5714E-02
875.34	7.8676E-02
875.50	7.2564E-02
875.67	7.0999E-02
875.84	7.3121E-02
876.01	7.0937E-02
876.17	6.8049E-02
876.34	6.8118E-02
876.51	7.9403E-02
876.68	7.6562E-02
876.85	7.4214E-02
877.01	7.7609E-02
877.18	7.0729E-02
877.35	7.2998E-02
877.52	7.2342E-02
877.68	7.5987E-02
877.85	7.0998E-02
878.02	7.3556E-02
878.19	7.1502E-02
878.35	7.3506E-02
878.52	7.2590E-02
878.69	7.4155E-02
878.86	6.7242E-02
879.02	7.1045E-02
879.19	6.5526E-02
879.36	6.9069E-02
879.53	6.1725E-02
879.69	6.8102E-02
879.86	7.5444E-02
880.03	7.4378E-02
880.20	6.7798E-02
880.36	7.5814E-02
880.53	6.6561E-02
880.70	7.6600E-02
880.87	7.0495E-02
881.03	7.0879E-02
881.20	6.3203E-02
881.37	7.0168E-02
881.54	7.2305E-02
881.70	7.6690E-02
881.87	6.8804E-02
882.04	6.9069E-02
882.20	6.9470E-02
882.37	6.3291E-02
882.54	7.2013E-02
882.71	7.1145E-02
882.87	7.5815E-02
883.04	6.8333E-02
883.21	6.8659E-02
883.37	6.6673E-02
883.54	6.9113E-02
883.71	6.6997E-02
883.87	6.4124E-02
884.04	7.4546E-02
884.21	6.7423E-02
884.38	6.4186E-02
884.54	7.5082E-02
884.71	7.4927E-02
884.88	6.6825E-02
885.04	6.9710E-02
885.21	6.5333E-02
885.38	6.5138E-02
885.54	7.7439E-02
885.71	6.6753E-02
885.88	7.0601E-02
886.04	6.8885E-02
886.21	6.9299E-02
886.38	6.6619E-02
886.54	6.7369E-02
886.71	6.3424E-02
886.88	7.3524E-02
887.04	6.0535E-02
887.21	6.5428E-02
887.38	7.0642E-02
887.54	6.2878E-02
887.71	6.5309E-02
887.88	6.3846E-02
888.04	7.4929E-02
888.21	6.3672E-02
888.38	7.0641E-02
888.54	6.8855E-02
888.71	6.3734E-02
888.87	6.0236E-02
889.04	6.0236E-02
>>>>>End Processed Spectral Data<<<<<
